4.410000000000000000e+02	7.276864214013004442e-03
4.420000000000000000e+02	7.945198120561563007e-03
4.430000000000000000e+02	8.672109758440344277e-03
4.440000000000000000e+02	9.462466938545962408e-03
4.450000000000000000e+02	1.032151763433674686e-02
4.460000000000000000e+02	1.125491753451755839e-02
4.470000000000000000e+02	1.226875941311166354e-02
4.480000000000000000e+02	1.336960442237613601e-02
4.490000000000000000e+02	1.456451541902637446e-02
4.500000000000000000e+02	1.586109243939841720e-02
4.510000000000000000e+02	1.726751044449411146e-02
4.520000000000000000e+02	1.879255946132033991e-02
4.530000000000000000e+02	2.044568725254756331e-02
4.540000000000000000e+02	2.223704465226988836e-02
4.550000000000000000e+02	2.417753371154397063e-02
4.560000000000000000e+02	2.627885880341278985e-02
4.570000000000000000e+02	2.855358084327593374e-02
4.580000000000000000e+02	3.101517478674007192e-02
4.590000000000000000e+02	3.367809057346785734e-02
4.600000000000000000e+02	3.655781769202785109e-02
4.610000000000000000e+02	3.967095354731996204e-02
4.620000000000000000e+02	4.303527581880303016e-02
4.630000000000000000e+02	4.666981900446384723e-02
4.640000000000000000e+02	5.059495535223040158e-02
4.650000000000000000e+02	5.483248038732621565e-02
4.660000000000000000e+02	5.940570325087499159e-02
4.670000000000000000e+02	6.433954207186468044e-02
4.680000000000000000e+02	6.966062460136357437e-02
4.690000000000000000e+02	7.539739434460937528e-02
4.700000000000000000e+02	8.158022243324705713e-02
4.710000000000000000e+02	8.824152548655314621e-02
4.720000000000000000e+02	9.541588971691163101e-02
4.730000000000000000e+02	1.031402015410801676e-01
4.740000000000000000e+02	1.114537849648693096e-01
4.750000000000000000e+02	1.203985460147173753e-01
4.760000000000000000e+02	1.300191244952458858e-01
4.770000000000000000e+02	1.403630533571846029e-01
4.780000000000000000e+02	1.514809259650213014e-01
4.790000000000000000e+02	1.634265715583211598e-01
4.800000000000000000e+02	1.762572392048218362e-01
4.810000000000000000e+02	1.900337905471141398e-01
4.820000000000000000e+02	2.048209016478795275e-01
4.830000000000000000e+02	2.206872742412783750e-01
4.840000000000000000e+02	2.377058567000617240e-01
4.850000000000000000e+02	2.559540750292922384e-01
4.860000000000000000e+02	2.755140741981286778e-01
4.870000000000000000e+02	2.964729701209353752e-01
4.880000000000000000e+02	3.189231125978913006e-01
4.890000000000000000e+02	3.429623595233625144e-01
4.900000000000000000e+02	3.686943626682339104e-01
4.910000000000000000e+02	3.962288653510337433e-01
4.920000000000000000e+02	4.256820124638021063e-01
4.930000000000000000e+02	4.571766749905575855e-01
4.940000000000000000e+02	4.908428067779813664e-01
4.950000000000000000e+02	5.268179771008778545e-01
4.960000000000000000e+02	5.652490937709838681e-01
4.970000000000000000e+02	6.063014943362264875e-01
4.980000000000000000e+02	6.502075540247601593e-01
4.990000000000000000e+02	6.974965796351780822e-01
5.000000000000000000e+02	7.499289178875516715e-01
5.010000000000000000e+02	8.137139271295030785e-01
5.020000000000000000e+02	9.087684227762915512e-01
5.030000000000000000e+02	1.090422362995632222e+00
5.040000000000000000e+02	1.488901564047751869e+00
5.050000000000000000e+02	2.358169336432167196e+00
5.060000000000000000e+02	4.093194760942171051e+00
5.070000000000000000e+02	7.140724484306679720e+00
5.080000000000000000e+02	1.174697604278808427e+01
5.090000000000000000e+02	1.760684729039444107e+01
5.100000000000000000e+02	2.365421769978737387e+01
5.110000000000000000e+02	2.827694490154433282e+01
5.120000000000000000e+02	2.999578703553926573e+01
5.130000000000000000e+02	2.823918411210344459e+01
5.140000000000000000e+02	2.366780595305798940e+01
5.150000000000000000e+02	1.780093598096071617e+01
5.160000000000000000e+02	1.222929986941326419e+01
5.170000000000000000e+02	7.963172260792759971e+00
5.180000000000000000e+02	5.255679765512073942e+00
5.190000000000000000e+02	3.834104026263657872e+00
5.200000000000000000e+02	3.249620638391506056e+00
5.210000000000000000e+02	3.117380146648054851e+00
5.220000000000000000e+02	3.194920690696148480e+00
5.230000000000000000e+02	3.360178234223514693e+00
5.240000000000000000e+02	3.562428476605818073e+00
5.250000000000000000e+02	3.784140278107134936e+00
5.260000000000000000e+02	4.020461782937412742e+00
5.270000000000000000e+02	4.270616225985969905e+00
5.280000000000000000e+02	4.534954622794860057e+00
5.290000000000000000e+02	4.814112067768514969e+00
5.300000000000000000e+02	5.108803446602372844e+00
5.310000000000000000e+02	5.419781617574712662e+00
5.320000000000000000e+02	5.747830568561503206e+00
5.330000000000000000e+02	6.093765008133403605e+00
5.340000000000000000e+02	6.458430971236123419e+00
5.350000000000000000e+02	6.842706558176506526e+00
5.360000000000000000e+02	7.247502682217528580e+00
5.370000000000000000e+02	7.673763808992246638e+00
5.380000000000000000e+02	8.122468684121415095e+00
5.390000000000000000e+02	8.594631046734903634e+00
5.400000000000000000e+02	9.091300326631696294e+00
5.410000000000000000e+02	9.613562322730098586e+00
5.420000000000000000e+02	1.016253986036707957e+01
5.430000000000000000e+02	1.073939342491322790e+01
5.440000000000000000e+02	1.134532176907942791e+01
5.450000000000000000e+02	1.198156249120199490e+01
5.460000000000000000e+02	1.264939258170601555e+01
5.470000000000000000e+02	1.335012893486270436e+01
5.480000000000000000e+02	1.408512882287430479e+01
5.490000000000000000e+02	1.485579032924265164e+01
5.500000000000000000e+02	1.566355273830252237e+01
5.510000000000000000e+02	1.650989687773065029e+01
5.520000000000000000e+02	1.739634541077590768e+01
5.530000000000000000e+02	1.832446307489506054e+01
5.540000000000000000e+02	1.929585686342346662e+01
5.550000000000000000e+02	2.031217614686132933e+01
5.560000000000000000e+02	2.137511273031243775e+01
5.570000000000000000e+02	2.248640084357766611e+01
5.580000000000000000e+02	2.364781706037592457e+01
5.590000000000000000e+02	2.486118014314533653e+01
5.600000000000000000e+02	2.612835080986508629e+01
5.610000000000000000e+02	2.745123141933456168e+01
5.620000000000000000e+02	2.883176557135248430e+01
5.630000000000000000e+02	3.027193761825451190e+01
5.640000000000000000e+02	3.177377208429259525e+01
5.650000000000000000e+02	3.333933298937693479e+01
5.660000000000000000e+02	3.497072307374790512e+01
5.670000000000000000e+02	3.667008292020411631e+01
5.680000000000000000e+02	3.843958997058426519e+01
5.690000000000000000e+02	4.028145743328249040e+01
5.700000000000000000e+02	4.219793307867285392e+01
5.710000000000000000e+02	4.419129791942717844e+01
5.720000000000000000e+02	4.626386477283145382e+01
5.730000000000000000e+02	4.841797670234218032e+01
5.740000000000000000e+02	5.065600533577170950e+01
5.750000000000000000e+02	5.298034905765540259e+01
5.760000000000000000e+02	5.539343107352966200e+01
5.770000000000000000e+02	5.789769734404174528e+01
5.780000000000000000e+02	6.049561438701665850e+01
5.790000000000000000e+02	6.318966694582775290e+01
5.800000000000000000e+02	6.598235552265040837e+01
5.810000000000000000e+02	6.887619377542783639e+01
5.820000000000000000e+02	7.187370577764058055e+01
5.830000000000000000e+02	7.497742314024786481e+01
5.840000000000000000e+02	7.818988199546014073e+01
5.850000000000000000e+02	8.151361984230722157e+01
5.860000000000000000e+02	8.495117225428229801e+01
5.870000000000000000e+02	8.850506944967601441e+01
5.880000000000000000e+02	9.217783272555519147e+01
5.890000000000000000e+02	9.597197075669753019e+01
5.900000000000000000e+02	9.988997576116163657e+01
5.910000000000000000e+02	1.039343195345470292e+02
5.920000000000000000e+02	1.081074493553898037e+02
5.930000000000000000e+02	1.124117837645347038e+02
5.940000000000000000e+02	1.168497082217328682e+02
5.950000000000000000e+02	1.214235706431275190e+02
5.960000000000000000e+02	1.261356768237116484e+02
5.970000000000000000e+02	1.309882857492681865e+02
5.980000000000000000e+02	1.359836048027374602e+02
5.990000000000000000e+02	1.411237848703900113e+02
6.000000000000000000e+02	1.464109153536238352e+02
6.010000000000000000e+02	1.518470190926448140e+02
6.020000000000000000e+02	1.574340472087294245e+02
6.030000000000000000e+02	1.631738738722096684e+02
6.040000000000000000e+02	1.690682910037559168e+02
6.050000000000000000e+02	1.751190029169684408e+02
6.060000000000000000e+02	1.813276209107160923e+02
6.070000000000000000e+02	1.876956578200835963e+02
6.080000000000000000e+02	1.942245225352011744e+02
6.090000000000000000e+02	2.009155144976353711e+02
6.100000000000000000e+02	2.077698181844135092e+02
6.110000000000000000e+02	2.147884975901345399e+02
6.120000000000000000e+02	2.219724907179834190e+02
6.130000000000000000e+02	2.293226040908195102e+02
6.140000000000000000e+02	2.368395072938388353e+02
6.150000000000000000e+02	2.445237275606289700e+02
6.160000000000000000e+02	2.523756444147221032e+02
6.170000000000000000e+02	2.603954843790289146e+02
6.180000000000000000e+02	2.685833157657802417e+02
6.190000000000000000e+02	2.769390435598275531e+02
6.200000000000000000e+02	2.854624044083473109e+02
6.210000000000000000e+02	2.941529617301646908e+02
6.220000000000000000e+02	3.030101009580469054e+02
6.230000000000000000e+02	3.120330249274293237e+02
6.240000000000000000e+02	3.212207494251059643e+02
6.250000000000000000e+02	3.305720989114660711e+02
6.260000000000000000e+02	3.400857024298596798e+02
6.270000000000000000e+02	3.497599897166534788e+02
6.280000000000000000e+02	3.595931875254691477e+02
6.290000000000000000e+02	3.695833161789996097e+02
6.300000000000000000e+02	3.797281863616579471e+02
6.310000000000000000e+02	3.900253961661343283e+02
6.320000000000000000e+02	4.004723284067233635e+02
6.330000000000000000e+02	4.110661482120218011e+02
6.340000000000000000e+02	4.218038009093065739e+02
6.350000000000000000e+02	4.326820102125579410e+02
6.360000000000000000e+02	4.436972767257244641e+02
6.370000000000000000e+02	4.548458767723971619e+02
6.380000000000000000e+02	4.661238615626148203e+02
6.390000000000000000e+02	4.775270567070128891e+02
6.400000000000000000e+02	4.890510620879995827e+02
6.410000000000000000e+02	5.006912520970610672e+02
6.420000000000000000e+02	5.124427762466867762e+02
6.430000000000000000e+02	5.243005601647516869e+02
6.440000000000000000e+02	5.362593069785078796e+02
6.450000000000000000e+02	5.483134990946093694e+02
6.460000000000000000e+02	5.604574003808454563e+02
6.470000000000000000e+02	5.726850587544589644e+02
6.480000000000000000e+02	5.849903091811177092e+02
6.490000000000000000e+02	5.973667770877456178e+02
6.500000000000000000e+02	6.098078821915565868e+02
6.510000000000000000e+02	6.223068427467234187e+02
6.520000000000000000e+02	6.348566802091943373e+02
6.530000000000000000e+02	6.474502243192256401e+02
6.540000000000000000e+02	6.600801186002290706e+02
6.550000000000000000e+02	6.727388262715614928e+02
6.560000000000000000e+02	6.854186365718826437e+02
6.570000000000000000e+02	6.981116714887090211e+02
6.580000000000000000e+02	7.108098928887728789e+02
6.590000000000000000e+02	7.235051100427868960e+02
6.600000000000000000e+02	7.361889875371825838e+02
6.610000000000000000e+02	7.488530535643827761e+02
6.620000000000000000e+02	7.614887085821435448e+02
6.630000000000000000e+02	7.740872343314953241e+02
6.640000000000000000e+02	7.866398032018113327e+02
6.650000000000000000e+02	7.991374879305461718e+02
6.660000000000000000e+02	8.115712716242111355e+02
6.670000000000000000e+02	8.239320580862054157e+02
6.680000000000000000e+02	8.362106824361891313e+02
6.690000000000000000e+02	8.483979220047776835e+02
6.700000000000000000e+02	8.604845074864620074e+02
6.710000000000000000e+02	8.724611343328108433e+02
6.720000000000000000e+02	8.843184743672017021e+02
6.730000000000000000e+02	8.960471876015494672e+02
6.740000000000000000e+02	9.076379342347664760e+02
6.750000000000000000e+02	9.190813868120003463e+02
6.760000000000000000e+02	9.303682425230387025e+02
6.770000000000000000e+02	9.414892356176818566e+02
6.780000000000000000e+02	9.524351499153220857e+02
6.790000000000000000e+02	9.631968313854824828e+02
6.800000000000000000e+02	9.737652007756158810e+02
6.810000000000000000e+02	9.841312662620829315e+02
6.820000000000000000e+02	9.942861360998975897e+02
6.830000000000000000e+02	1.004221031246559278e+03
6.840000000000000000e+02	1.013927297935084312e+03
6.850000000000000000e+02	1.023396420171201953e+03
6.860000000000000000e+02	1.032620032129601441e+03
6.870000000000000000e+02	1.041589930424096337e+03
6.880000000000000000e+02	1.050298086226621990e+03
6.890000000000000000e+02	1.058736657210095473e+03
6.900000000000000000e+02	1.066897999290344615e+03
6.910000000000000000e+02	1.074774678142561925e+03
6.920000000000000000e+02	1.082359480468045376e+03
6.930000000000000000e+02	1.089645424987368642e+03
6.940000000000000000e+02	1.096625773136563112e+03
6.950000000000000000e+02	1.103294039443396287e+03
6.960000000000000000e+02	1.109644001561408004e+03
6.970000000000000000e+02	1.115669709939984386e+03
6.980000000000000000e+02	1.121365497109449052e+03
6.990000000000000000e+02	1.126725986560898946e+03
7.000000000000000000e+02	1.131746101201310694e+03
7.010000000000000000e+02	1.136421071365317403e+03
7.020000000000000000e+02	1.140746442365955090e+03
7.030000000000000000e+02	1.144718081567655418e+03
7.040000000000000000e+02	1.148332184965759097e+03
7.050000000000000000e+02	1.151585283257894844e+03
7.060000000000000000e+02	1.154474247393652377e+03
7.070000000000000000e+02	1.156996293590131245e+03
7.080000000000000000e+02	1.159148987802102511e+03
7.090000000000000000e+02	1.160930249636744065e+03
7.100000000000000000e+02	1.162338355704128617e+03
7.110000000000000000e+02	1.163371942395916676e+03
7.120000000000000000e+02	1.164030008085977670e+03
7.130000000000000000e+02	1.164311914747973105e+03
7.140000000000000000e+02	1.164217388986239712e+03
7.150000000000000000e+02	1.163746522477645385e+03
7.160000000000000000e+02	1.162899771823414540e+03
7.170000000000000000e+02	1.161677957811261876e+03
7.180000000000000000e+02	1.160082264089499631e+03
7.190000000000000000e+02	1.158114235256119628e+03
7.200000000000000000e+02	1.155775774367169106e+03
7.210000000000000000e+02	1.153069139870041909e+03
7.220000000000000000e+02	1.149996941968610599e+03
7.230000000000000000e+02	1.146562138428380422e+03
7.240000000000000000e+02	1.142768029831110425e+03
7.250000000000000000e+02	1.138618254289550123e+03
7.260000000000000000e+02	1.134116781634148765e+03
7.270000000000000000e+02	1.129267907084729586e+03
7.280000000000000000e+02	1.124076244421258480e+03
7.290000000000000000e+02	1.118546718668898393e+03
7.300000000000000000e+02	1.112684558313586876e+03
7.310000000000000000e+02	1.106495287065353068e+03
7.320000000000000000e+02	1.099984715187536494e+03
7.330000000000000000e+02	1.093158930410952280e+03
7.340000000000000000e+02	1.086024288452880910e+03
7.350000000000000000e+02	1.078587403161546490e+03
7.360000000000000000e+02	1.070855136307454131e+03
7.370000000000000000e+02	1.062834587043629881e+03
7.380000000000000000e+02	1.054533081057397112e+03
7.390000000000000000e+02	1.045958159436866026e+03
7.400000000000000000e+02	1.037117567275782676e+03
7.410000000000000000e+02	1.028019242040793415e+03
7.420000000000000000e+02	1.018671301725525041e+03
7.430000000000000000e+02	1.009082032816159654e+03
7.440000000000000000e+02	9.992598780933916487e+02
7.450000000000000000e+02	9.892134242958079540e+02
7.460000000000000000e+02	9.789513896698018698e+02
7.470000000000000000e+02	9.684826114311582614e+02
7.480000000000000000e+02	9.578160331633891929e+02
7.490000000000000000e+02	9.469606921777888147e+02
7.500000000000000000e+02	9.359257068599994227e+02
7.510000000000000000e+02	9.247202640276411785e+02
7.520000000000000000e+02	9.133536063232598963e+02
7.530000000000000000e+02	9.018350196664873692e+02
7.540000000000000000e+02	8.901738207888946590e+02
7.550000000000000000e+02	8.783793448745490196e+02
7.560000000000000000e+02	8.664609333287577329e+02
7.570000000000000000e+02	8.544279216969099480e+02
7.580000000000000000e+02	8.422896277547021100e+02
7.590000000000000000e+02	8.300553397903631776e+02
7.600000000000000000e+02	8.177343050987793731e+02
7.610000000000000000e+02	8.053357187066633287e+02
7.620000000000000000e+02	7.928687123471228233e+02
7.630000000000000000e+02	7.803423437011456372e+02
7.640000000000000000e+02	7.677655859226649682e+02
7.650000000000000000e+02	7.551473174629716141e+02
7.660000000000000000e+02	7.424963122093200809e+02
7.670000000000000000e+02	7.298212299516405892e+02
7.680000000000000000e+02	7.171306071902974963e+02
7.690000000000000000e+02	7.044328482968612661e+02
7.700000000000000000e+02	6.917362170388634013e+02
7.710000000000000000e+02	6.790488284784998996e+02
7.720000000000000000e+02	6.663786412542355038e+02
7.730000000000000000e+02	6.537334502532399938e+02
7.740000000000000000e+02	6.411208796815730011e+02
7.750000000000000000e+02	6.285483765380070054e+02
7.760000000000000000e+02	6.160232044963682938e+02
7.770000000000000000e+02	6.035524382002663515e+02
7.780000000000000000e+02	5.911429579730784099e+02
7.790000000000000000e+02	5.788014449450766961e+02
7.800000000000000000e+02	5.665343765986051494e+02
7.810000000000000000e+02	5.543480227312645638e+02
7.820000000000000000e+02	5.422484418361287908e+02
7.830000000000000000e+02	5.302414778970947964e+02
7.840000000000000000e+02	5.183327575965943197e+02
7.850000000000000000e+02	5.065276879320157377e+02
7.860000000000000000e+02	4.948314542363660280e+02
7.870000000000000000e+02	4.832490185978852537e+02
7.880000000000000000e+02	4.717851186725627031e+02
7.890000000000000000e+02	4.604442668827575176e+02
7.900000000000000000e+02	4.492307499944245706e+02
7.910000000000000000e+02	4.381486290647761166e+02
7.920000000000000000e+02	4.272017397515753601e+02
7.930000000000000000e+02	4.163936929746642477e+02
7.940000000000000000e+02	4.057278759197711793e+02
7.950000000000000000e+02	3.952074533741242703e+02
7.960000000000000000e+02	3.848353693829218969e+02
7.970000000000000000e+02	3.746143492152691579e+02
7.980000000000000000e+02	3.645469016277978085e+02
7.990000000000000000e+02	3.546353214138218277e+02
8.000000000000000000e+02	3.448816922255724080e+02
8.010000000000000000e+02	3.352878896567720517e+02
8.020000000000000000e+02	3.258555845725763334e+02
8.030000000000000000e+02	3.165862466737105478e+02
8.040000000000000000e+02	3.074811482814733949e+02
8.050000000000000000e+02	2.985413683301568426e+02
8.060000000000000000e+02	2.897677965533519568e+02
8.070000000000000000e+02	2.811611378505637617e+02
8.080000000000000000e+02	2.727219168205485289e+02
8.090000000000000000e+02	2.644504824478128739e+02
8.100000000000000000e+02	2.563470129287716190e+02
8.110000000000000000e+02	2.484115206241576459e+02
8.120000000000000000e+02	2.406438571243940316e+02
8.130000000000000000e+02	2.330437184147963023e+02
8.140000000000000000e+02	2.256106501276538552e+02
8.150000000000000000e+02	2.183440528684485002e+02
8.160000000000000000e+02	2.112431876037031486e+02
8.170000000000000000e+02	2.043071810982141869e+02
8.180000000000000000e+02	1.975350313897024819e+02
8.190000000000000000e+02	1.909256132892235485e+02
8.200000000000000000e+02	1.844776838959988936e+02
8.210000000000000000e+02	1.781898881156740799e+02
8.220000000000000000e+02	1.720607641713667988e+02
8.230000000000000000e+02	1.660887490972421858e+02
8.240000000000000000e+02	1.602721842047388918e+02
8.250000000000000000e+02	1.546093205119694005e+02
8.260000000000000000e+02	1.490983241272256521e+02
8.270000000000000000e+02	1.437372815779421842e+02
8.280000000000000000e+02	1.385242050768898139e+02
8.290000000000000000e+02	1.334570377178098113e+02
8.300000000000000000e+02	1.285336585931280240e+02
8.310000000000000000e+02	1.237518878268339648e+02
8.320000000000000000e+02	1.191094915160434340e+02
8.330000000000000000e+02	1.146041865752088142e+02
8.340000000000000000e+02	1.102336454773796248e+02
8.350000000000000000e+02	1.059955008873519660e+02
8.360000000000000000e+02	1.018873501819824270e+02
8.370000000000000000e+02	9.790675985336959286e+01
8.380000000000000000e+02	9.405126979103185647e+01
8.390000000000000000e+02	9.031839743962846967e+01
8.400000000000000000e+02	8.670564182917964047e+01
8.410000000000000000e+02	8.321048747514495858e+01
8.420000000000000000e+02	7.983040814611254632e+01
8.430000000000000000e+02	7.656287049723314908e+01
8.440000000000000000e+02	7.340533756790652831e+01
8.450000000000000000e+02	7.035527214258986817e+01
8.460000000000000000e+02	6.741013997394527735e+01
8.470000000000000000e+02	6.456741286788175671e+01
8.480000000000000000e+02	6.182457163037213377e+01
8.490000000000000000e+02	5.917910887623490623e+01
8.500000000000000000e+02	5.662853170036940753e+01
8.510000000000000000e+02	5.417036421221781239e+01
8.520000000000000000e+02	5.180214993449455818e+01
8.530000000000000000e+02	4.952145406748274326e+01
8.540000000000000000e+02	4.732586562043589140e+01
8.550000000000000000e+02	4.521299941185151994e+01
8.560000000000000000e+02	4.318049794059603386e+01
8.570000000000000000e+02	4.122603313005797077e+01
8.580000000000000000e+02	3.934730794769046724e+01
8.590000000000000000e+02	3.754205790247484487e+01
8.600000000000000000e+02	3.580805242299135926e+01
8.610000000000000000e+02	3.414309611892647212e+01
8.620000000000000000e+02	3.254502992897354829e+01
8.630000000000000000e+02	3.101173215819885343e+01
8.640000000000000000e+02	2.954111940804720859e+01
8.650000000000000000e+02	2.813114740225023880e+01
8.660000000000000000e+02	2.677981171197689392e+01
8.670000000000000000e+02	2.548514838363132284e+01
8.680000000000000000e+02	2.424523447275496579e+01
8.690000000000000000e+02	2.305818848753305161e+01
8.700000000000000000e+02	2.192217074543513178e+01
8.710000000000000000e+02	2.083538364654090813e+01
8.720000000000000000e+02	1.979607186711264433e+01
8.730000000000000000e+02	1.880252247697688261e+01
8.740000000000000000e+02	1.785306498426968602e+01
8.750000000000000000e+02	1.694607131108398335e+01
8.760000000000000000e+02	1.607995570353199355e+01
8.770000000000000000e+02	1.525317457970443158e+01
8.780000000000000000e+02	1.446422631896798627e+01
8.790000000000000000e+02	1.371165099599705250e+01
8.800000000000000000e+02	1.299403006288337004e+01
8.810000000000000000e+02	1.230998598260907428e+01
8.820000000000000000e+02	1.165818181710548451e+01
8.830000000000000000e+02	1.103732077305195602e+01
8.840000000000000000e+02	1.044614570849661028e+01
8.850000000000000000e+02	9.883438603304291803e+00
8.860000000000000000e+02	9.348019996357352923e+00
8.870000000000000000e+02	8.838748392351615024e+00
8.880000000000000000e+02	8.354519640944323200e+00
8.890000000000000000e+02	7.894266290922836937e+00
8.900000000000000000e+02	7.456956921972611951e+00
8.910000000000000000e+02	7.041595456531837272e+00
8.920000000000000000e+02	6.647220454126823164e+00
8.930000000000000000e+02	6.272904390488975856e+00
8.940000000000000000e+02	5.917752923659516107e+00
8.950000000000000000e+02	5.580904149193697705e+00
8.960000000000000000e+02	5.261527846481710569e+00
8.970000000000000000e+02	4.958824718108900242e+00
8.980000000000000000e+02	4.672025624084323425e+00
8.990000000000000000e+02	4.400390812673431462e+00
9.000000000000000000e+02	4.143209149478595421e+00
9.010000000000000000e+02	3.899797346320255986e+00
9.020000000000000000e+02	3.669499191381835335e+00
9.030000000000000000e+02	3.451684781993569207e+00
9.040000000000000000e+02	3.245749761344002504e+00
9.050000000000000000e+02	3.051114560323396674e+00
9.060000000000000000e+02	2.867223645620780026e+00
9.070000000000000000e+02	2.693544775115778389e+00
9.080000000000000000e+02	2.529568261528321926e+00
9.090000000000000000e+02	2.374806245213067157e+00
9.100000000000000000e+02	2.228791976911924877e+00
9.110000000000000000e+02	2.091079111206785246e+00
9.120000000000000000e+02	1.961241011345751017e+00
9.130000000000000000e+02	1.838870066050093843e+00
9.140000000000000000e+02	1.723577018845309228e+00
9.150000000000000000e+02	1.614990310398664697e+00
9.160000000000000000e+02	1.512755434287053058e+00
9.170000000000000000e+02	1.416534306563075107e+00
9.180000000000000000e+02	1.326004649433869975e+00
9.190000000000000000e+02	1.240859389316518957e+00
9.200000000000000000e+02	1.160806069485564640e+00
9.210000000000000000e+02	1.085566277482523878e+00
9.220000000000000000e+02	1.014875087414079724e+00
9.230000000000000000e+02	9.484805172248643723e-01
9.240000000000000000e+02	8.861430009924706752e-01
9.250000000000000000e+02	8.276348762563113803e-01
9.260000000000000000e+02	7.727398863583277988e-01
9.270000000000000000e+02	7.212526977421492846e-01
9.280000000000000000e+02	6.729784321280836146e-01
9.290000000000000000e+02	6.277322134542951959e-01
9.300000000000000000e+02	5.853387294494907245e-01
9.310000000000000000e+02	5.456318076794637317e-01
9.320000000000000000e+02	5.084540058887742076e-01
9.330000000000000000e+02	4.736562164396518892e-01
9.340000000000000000e+02	4.410972846327829711e-01
9.350000000000000000e+02	4.106436406789747418e-01
9.360000000000000000e+02	3.821689450766280749e-01
9.370000000000000000e+02	3.555537471374784486e-01
9.380000000000000000e+02	3.306851563921082704e-01
9.390000000000000000e+02	3.074565265971581085e-01
9.400000000000000000e+02	2.857671520580147839e-01
9.410000000000000000e+02	2.655219759738118857e-01
9.420000000000000000e+02	2.466313105059060318e-01
9.430000000000000000e+02	2.290105682664471121e-01
9.440000000000000000e+02	2.125800049201798103e-01
9.450000000000000000e+02	1.972644725901640528e-01
9.460000000000000000e+02	1.829931837565861030e-01
9.470000000000000000e+02	1.696994853372053025e-01
9.480000000000000000e+02	1.573206426381601741e-01
9.490000000000000000e+02	1.457976328648327990e-01
9.500000000000000000e+02	1.350749478841006546e-01
9.510000000000000000e+02	1.251004059316332129e-01
9.520000000000000000e+02	1.158249719607744033e-01
9.530000000000000000e+02	1.072025863330056533e-01
9.540000000000000000e+02	9.919000155391345663e-02
9.550000000000000000e+02	9.174662676297239139e-02
9.560000000000000000e+02	8.483437969023845115e-02
9.570000000000000000e+02	7.841754579818605020e-02
9.580000000000000000e+02	7.246264433238469582e-02
9.590000000000000000e+02	6.693830101044373482e-02
9.600000000000000000e+02	6.181512708463248601e-02
9.610000000000000000e+02	5.706560451976564613e-02
9.620000000000000000e+02	5.266397703430041738e-02
9.630000000000000000e+02	4.858614675908608932e-02
9.640000000000000000e+02	4.480957627482464595e-02
9.650000000000000000e+02	4.131319579599000702e-02
9.660000000000000000e+02	3.807731527571758118e-02
9.670000000000000000e+02	3.508354121296589773e-02
9.680000000000000000e+02	3.231469795006470386e-02
9.690000000000000000e+02	2.975475325556605974e-02
9.700000000000000000e+02	2.738874799409854108e-02
9.710000000000000000e+02	2.520272969166196045e-02
9.720000000000000000e+02	2.318368981148667338e-02
9.730000000000000000e+02	2.131950456219297921e-02
9.740000000000000000e+02	1.959887906651699291e-02
9.750000000000000000e+02	1.801129472530316536e-02
9.760000000000000000e+02	1.654695961779458283e-02
9.770000000000000000e+02	1.519676178546613445e-02
9.780000000000000000e+02	1.395222525273780677e-02
9.790000000000000000e+02	1.280546864386827681e-02
9.800000000000000000e+02	1.174916626115583666e-02
9.810000000000000000e+02	1.077651149525822583e-02
9.820000000000000000e+02	9.881182443984393160e-03
9.830000000000000000e+02	9.057309621301311980e-03
9.840000000000000000e+02	8.299445643539946071e-03
9.850000000000000000e+02	7.602536784868975384e-03
9.860000000000000000e+02	6.961896299036809607e-03
9.870000000000000000e+02	6.373179409156572855e-03
9.880000000000000000e+02	5.832359871927397105e-03
9.890000000000000000e+02	5.335708027147998030e-03
9.900000000000000000e+02	4.879770247685382041e-03
9.910000000000000000e+02	4.461349709214948792e-03
9.920000000000000000e+02	4.077488403048089467e-03
9.930000000000000000e+02	3.725450319212920795e-03
9.940000000000000000e+02	3.402705730654557049e-03
9.950000000000000000e+02	3.106916512975533944e-03
9.960000000000000000e+02	2.835922437548068359e-03
9.970000000000000000e+02	2.587728379099517913e-03
9.980000000000000000e+02	2.360492382005218315e-03
9.990000000000000000e+02	2.152514532520662018e-03
1.000000000000000000e+03	1.962226587051916268e-03
