4.410000000000000000e+02	5.553542657253928566e-02
4.420000000000000000e+02	6.027742285057462873e-02
4.430000000000000000e+02	6.540395801298135026e-02
4.440000000000000000e+02	7.094440940652602112e-02
4.450000000000000000e+02	7.693024502604170478e-02
4.460000000000000000e+02	8.339515978146190556e-02
4.470000000000000000e+02	9.037521967362251163e-02
4.480000000000000000e+02	9.790901426558279441e-02
4.490000000000000000e+02	1.060378178499618435e-01
4.500000000000000000e+02	1.148057597266351898e-01
4.510000000000000000e+02	1.242600040190795091e-01
4.520000000000000000e+02	1.344509394716436046e-01
4.530000000000000000e+02	1.454323796840304994e-01
4.540000000000000000e+02	1.572617742532566587e-01
4.550000000000000000e+02	1.700004313072741025e-01
4.560000000000000000e+02	1.837137519282334985e-01
4.570000000000000000e+02	1.984714769770180576e-01
4.580000000000000000e+02	2.143479468440905866e-01
4.590000000000000000e+02	2.314223746648546853e-01
4.600000000000000000e+02	2.497791335505460952e-01
4.610000000000000000e+02	2.695080583980921651e-01
4.620000000000000000e+02	2.907047628543423801e-01
4.630000000000000000e+02	3.134709720214780004e-01
4.640000000000000000e+02	3.379148715012374460e-01
4.650000000000000000e+02	3.641514733856949793e-01
4.660000000000000000e+02	3.923029998116783212e-01
4.670000000000000000e+02	4.224992847043812505e-01
4.680000000000000000e+02	4.548781943432585462e-01
4.690000000000000000e+02	4.895860673897383109e-01
4.700000000000000000e+02	5.267781750216146142e-01
4.710000000000000000e+02	5.666192018230407079e-01
4.720000000000000000e+02	6.092837480817193674e-01
4.730000000000000000e+02	6.549568541461132654e-01
4.740000000000000000e+02	7.038345474951089864e-01
4.750000000000000000e+02	7.561244131704679683e-01
4.760000000000000000e+02	8.120461882184879521e-01
4.770000000000000000e+02	8.718323807813558313e-01
4.780000000000000000e+02	9.357289144707493511e-01
4.790000000000000000e+02	1.003995798645946458e+00
4.800000000000000000e+02	1.076907825206218305e+00
4.810000000000000000e+02	1.154755292492115393e+00
4.820000000000000000e+02	1.237844756872611862e+00
4.830000000000000000e+02	1.326499812574532644e+00
4.840000000000000000e+02	1.421061900287303725e+00
4.850000000000000000e+02	1.521891145049544480e+00
4.860000000000000000e+02	1.629367223894367722e+00
4.870000000000000000e+02	1.743890263697162046e+00
4.880000000000000000e+02	1.865881769633123577e+00
4.890000000000000000e+02	1.995785584611547758e+00
4.900000000000000000e+02	2.134068880009995617e+00
4.910000000000000000e+02	2.281223177983481953e+00
4.920000000000000000e+02	2.437765405571910016e+00
4.930000000000000000e+02	2.604238980772830558e+00
4.940000000000000000e+02	2.781214930686087161e+00
4.950000000000000000e+02	2.969293041772109731e+00
4.960000000000000000e+02	3.169103042195973607e+00
4.970000000000000000e+02	3.381305816155403043e+00
4.980000000000000000e+02	3.606594650013315029e+00
4.990000000000000000e+02	3.845696510051453743e+00
5.000000000000000000e+02	4.099373354780483147e+00
5.010000000000000000e+02	4.368423580687118779e+00
5.020000000000000000e+02	4.653685824632715295e+00
5.030000000000000000e+02	4.956081724026542012e+00
5.040000000000000000e+02	5.277134987216534512e+00
5.050000000000000000e+02	5.623683222333292875e+00
5.060000000000000000e+02	6.038417946308945794e+00
5.070000000000000000e+02	6.735766567327477361e+00
5.080000000000000000e+02	8.483374189718993819e+00
5.090000000000000000e+02	1.310369772648996545e+01
5.100000000000000000e+02	2.299829951615272350e+01
5.110000000000000000e+02	3.827490431834821294e+01
5.120000000000000000e+02	5.341464709321591897e+01
5.130000000000000000e+02	5.948167839254529810e+01
5.140000000000000000e+02	5.249019139234192721e+01
5.150000000000000000e+02	3.780726915264568788e+01
5.160000000000000000e+02	2.430243465044977924e+01
5.170000000000000000e+02	1.650315963443296496e+01
5.180000000000000000e+02	1.364421753473560628e+01
5.190000000000000000e+02	1.329443574837970310e+01
5.200000000000000000e+02	1.382357610766679379e+01
5.210000000000000000e+02	1.459624112052964229e+01
5.220000000000000000e+02	1.544749800667276318e+01
5.230000000000000000e+02	1.634848572221759255e+01
5.240000000000000000e+02	1.729713245824252610e+01
5.250000000000000000e+02	1.829516445892871701e+01
5.260000000000000000e+02	1.934476053929045491e+01
5.270000000000000000e+02	2.044820504947550077e+01
5.280000000000000000e+02	2.160786293372240863e+01
5.290000000000000000e+02	2.282617973041651638e+01
5.300000000000000000e+02	2.410568294680551205e+01
5.310000000000000000e+02	2.544898344343255658e+01
5.320000000000000000e+02	2.685877676503616129e+01
5.330000000000000000e+02	2.833784441043503932e+01
5.340000000000000000e+02	2.988905503551686849e+01
5.350000000000000000e+02	3.151536558331667592e+01
5.360000000000000000e+02	3.321982233500243353e+01
5.370000000000000000e+02	3.500556187542365194e+01
5.380000000000000000e+02	3.687581196672290673e+01
5.390000000000000000e+02	3.883389232336411112e+01
5.400000000000000000e+02	4.088321528179281472e+01
5.410000000000000000e+02	4.302728635781684829e+01
5.420000000000000000e+02	4.526970468467763453e+01
5.430000000000000000e+02	4.761416332467781842e+01
5.440000000000000000e+02	5.006444944713785361e+01
5.450000000000000000e+02	5.262444436537555958e+01
5.460000000000000000e+02	5.529812342533823966e+01
5.470000000000000000e+02	5.808955573846667875e+01
5.480000000000000000e+02	6.100290375133991461e+01
5.490000000000000000e+02	6.404242264463255196e+01
5.500000000000000000e+02	6.721245955392070925e+01
5.510000000000000000e+02	7.051745260489391853e+01
5.520000000000000000e+02	7.396192975557345051e+01
5.530000000000000000e+02	7.755050743820108039e+01
5.540000000000000000e+02	8.128788899354607622e+01
5.550000000000000000e+02	8.517886289048823301e+01
5.560000000000000000e+02	8.922830072386382483e+01
5.570000000000000000e+02	9.344115498371940021e+01
5.580000000000000000e+02	9.782245658929673482e+01
5.590000000000000000e+02	1.023773121812795210e+02
5.600000000000000000e+02	1.071109011660655455e+02
5.610000000000000000e+02	1.120284725060861746e+02
5.620000000000000000e+02	1.171353412504825968e+02
5.630000000000000000e+02	1.224368848007627832e+02
5.640000000000000000e+02	1.279385389064059098e+02
5.650000000000000000e+02	1.336457933857525120e+02
5.660000000000000000e+02	1.395641875679190491e+02
5.670000000000000000e+02	1.456993054519036548e+02
5.680000000000000000e+02	1.520567705795102142e+02
5.690000000000000000e+02	1.586422406192027950e+02
5.700000000000000000e+02	1.654614016585207423e+02
5.710000000000000000e+02	1.725199622032270668e+02
5.720000000000000000e+02	1.798236468819395100e+02
5.730000000000000000e+02	1.873781898555912733e+02
5.740000000000000000e+02	1.951893279317006886e+02
5.750000000000000000e+02	2.032627933840808794e+02
5.760000000000000000e+02	2.116043064793068424e+02
5.770000000000000000e+02	2.202195677119604795e+02
5.780000000000000000e+02	2.291142497514078400e+02
5.790000000000000000e+02	2.382939891036166102e+02
5.800000000000000000e+02	2.477643774922995874e+02
5.810000000000000000e+02	2.575309529644655413e+02
5.820000000000000000e+02	2.675991907262774703e+02
5.830000000000000000e+02	2.779744937159534857e+02
5.840000000000000000e+02	2.886621829212907642e+02
5.850000000000000000e+02	2.996674874502674015e+02
5.860000000000000000e+02	3.109955343640434080e+02
5.870000000000000000e+02	3.226513382825787630e+02
5.880000000000000000e+02	3.346397907739763014e+02
5.890000000000000000e+02	3.469656495395622642e+02
5.900000000000000000e+02	3.596335274076192832e+02
5.910000000000000000e+02	3.726478811495988452e+02
5.920000000000000000e+02	3.860130001335372754e+02
5.930000000000000000e+02	3.997329948303097922e+02
5.940000000000000000e+02	4.138117851892415615e+02
5.950000000000000000e+02	4.282530889004895585e+02
5.960000000000000000e+02	4.430604095624727847e+02
5.970000000000000000e+02	4.582370247734923510e+02
5.980000000000000000e+02	4.737859741675167697e+02
5.990000000000000000e+02	4.897100474149297042e+02
6.000000000000000000e+02	5.060117722098257786e+02
6.010000000000000000e+02	5.226934022662113648e+02
6.020000000000000000e+02	5.397569053461972999e+02
6.030000000000000000e+02	5.572039513439740404e+02
6.040000000000000000e+02	5.750359004500253377e+02
6.050000000000000000e+02	5.932537914206584446e+02
6.060000000000000000e+02	6.118583299785109375e+02
6.070000000000000000e+02	6.308498773702328890e+02
6.080000000000000000e+02	6.502284391080225987e+02
6.090000000000000000e+02	6.699936539221357634e+02
6.100000000000000000e+02	6.901447829518604067e+02
6.110000000000000000e+02	7.106806992027760543e+02
6.120000000000000000e+02	7.315998772983749632e+02
6.130000000000000000e+02	7.529003835543190917e+02
6.140000000000000000e+02	7.745798664037422441e+02
6.150000000000000000e+02	7.966355472020719617e+02
6.160000000000000000e+02	8.190642114398330023e+02
6.170000000000000000e+02	8.418622003918275141e+02
6.180000000000000000e+02	8.650254032309281911e+02
6.190000000000000000e+02	8.885492496344940037e+02
6.200000000000000000e+02	9.124287029111195579e+02
6.210000000000000000e+02	9.366582536750387362e+02
6.220000000000000000e+02	9.612319140950496603e+02
6.230000000000000000e+02	9.861432127442762976e+02
6.240000000000000000e+02	1.011385190076469712e+03
6.250000000000000000e+02	1.036950394553835622e+03
6.260000000000000000e+02	1.062830879450600605e+03
6.270000000000000000e+02	1.089018200355648787e+03
6.280000000000000000e+02	1.115503413396626911e+03
6.290000000000000000e+02	1.142277074206871930e+03
6.300000000000000000e+02	1.169329237655418410e+03
6.310000000000000000e+02	1.196649458359148184e+03
6.320000000000000000e+02	1.224226791994886526e+03
6.330000000000000000e+02	1.252049797427906014e+03
6.340000000000000000e+02	1.280106539671889323e+03
6.350000000000000000e+02	1.308384593693919214e+03
6.360000000000000000e+02	1.336871049076510189e+03
6.370000000000000000e+02	1.365552515547083203e+03
6.380000000000000000e+02	1.394415129383602334e+03
6.390000000000000000e+02	1.423444560703355592e+03
6.400000000000000000e+02	1.452626021640066483e+03
6.410000000000000000e+02	1.481944275412682146e+03
6.420000000000000000e+02	1.511383646287285274e+03
6.430000000000000000e+02	1.540928030431645084e+03
6.440000000000000000e+02	1.570560907659947361e+03
6.450000000000000000e+02	1.600265354063237737e+03
6.460000000000000000e+02	1.630024055519070544e+03
6.470000000000000000e+02	1.659819322071803526e+03
6.480000000000000000e+02	1.689633103172892561e+03
6.490000000000000000e+02	1.719447003768457307e+03
6.500000000000000000e+02	1.749242301219283718e+03
6.510000000000000000e+02	1.778999963036340660e+03
6.520000000000000000e+02	1.808700665412784247e+03
6.530000000000000000e+02	1.838324812531343923e+03
6.540000000000000000e+02	1.867852556623925921e+03
6.550000000000000000e+02	1.897263818758214256e+03
6.560000000000000000e+02	1.926538310324042868e+03
6.570000000000000000e+02	1.955655555190337509e+03
6.580000000000000000e+02	1.984594912501480167e+03
6.590000000000000000e+02	2.013335600080064296e+03
6.600000000000000000e+02	2.041856718401182661e+03
6.610000000000000000e+02	2.070137275101588784e+03
6.620000000000000000e+02	2.098156209985396345e+03
6.630000000000000000e+02	2.125892420486317860e+03
6.640000000000000000e+02	2.153324787544880110e+03
6.650000000000000000e+02	2.180432201857605833e+03
6.660000000000000000e+02	2.207193590453718116e+03
6.670000000000000000e+02	2.233587943553655805e+03
6.680000000000000000e+02	2.259594341662476836e+03
6.690000000000000000e+02	2.285191982850127715e+03
6.700000000000000000e+02	2.310360210169568290e+03
6.710000000000000000e+02	2.335078539162860125e+03
6.720000000000000000e+02	2.359326685404561886e+03
6.730000000000000000e+02	2.383084592031127158e+03
6.740000000000000000e+02	2.406332457204468938e+03
6.750000000000000000e+02	2.429050761457465796e+03
6.760000000000000000e+02	2.451220294868893234e+03
6.770000000000000000e+02	2.472822184015128641e+03
6.780000000000000000e+02	2.493837918645956506e+03
6.790000000000000000e+02	2.514249378031914603e+03
6.800000000000000000e+02	2.534038856930873862e+03
6.810000000000000000e+02	2.553189091121921592e+03
6.820000000000000000e+02	2.571683282455126118e+03
6.830000000000000000e+02	2.589505123366422595e+03
6.840000000000000000e+02	2.606638820807620050e+03
6.850000000000000000e+02	2.623069119542447879e+03
6.860000000000000000e+02	2.638781324760599091e+03
6.870000000000000000e+02	2.653761323962890856e+03
6.880000000000000000e+02	2.667995608071947572e+03
6.890000000000000000e+02	2.681471291724238199e+03
6.900000000000000000e+02	2.694176132700811195e+03
6.910000000000000000e+02	2.706098550455737495e+03
6.920000000000000000e+02	2.717227643703008653e+03
6.930000000000000000e+02	2.727553207024517178e+03
6.940000000000000000e+02	2.737065746463707455e+03
6.950000000000000000e+02	2.745756494071541965e+03
6.960000000000000000e+02	2.753617421373592606e+03
6.970000000000000000e+02	2.760641251729303349e+03
6.980000000000000000e+02	2.766821471556791039e+03
6.990000000000000000e+02	2.772152340398943579e+03
7.000000000000000000e+02	2.776628899809045834e+03
7.010000000000000000e+02	2.780246981036671968e+03
7.020000000000000000e+02	2.783003211497174107e+03
7.030000000000000000e+02	2.784895020010710596e+03
7.040000000000000000e+02	2.785920640799415651e+03
7.050000000000000000e+02	2.786079116234021512e+03
7.060000000000000000e+02	2.785370298323944553e+03
7.070000000000000000e+02	2.783794848947595710e+03
7.080000000000000000e+02	2.781354238822406387e+03
7.090000000000000000e+02	2.778050745216820815e+03
7.100000000000000000e+02	2.773887448409232547e+03
7.110000000000000000e+02	2.768868226901574872e+03
7.120000000000000000e+02	2.762997751397978845e+03
7.130000000000000000e+02	2.756281477561576594e+03
7.140000000000000000e+02	2.748725637565189118e+03
7.150000000000000000e+02	2.740337230454196742e+03
7.160000000000000000e+02	2.731124011342471022e+03
7.170000000000000000e+02	2.721094479464702090e+03
7.180000000000000000e+02	2.710257865110892908e+03
7.190000000000000000e+02	2.698624115471132882e+03
7.200000000000000000e+02	2.686203879421036163e+03
7.210000000000000000e+02	2.673008491280418639e+03
7.220000000000000000e+02	2.659049953579880366e+03
7.230000000000000000e+02	2.644340918871967915e+03
7.240000000000000000e+02	2.628894670625491017e+03
7.250000000000000000e+02	2.612725103243360081e+03
7.260000000000000000e+02	2.595846701246008251e+03
7.270000000000000000e+02	2.578274517664026916e+03
7.280000000000000000e+02	2.560024151685096513e+03
7.290000000000000000e+02	2.541111725601650051e+03
7.300000000000000000e+02	2.521553861106882323e+03
7.310000000000000000e+02	2.501367654987844162e+03
7.320000000000000000e+02	2.480570654265281519e+03
7.330000000000000000e+02	2.459180830830727700e+03
7.340000000000000000e+02	2.437216555632043764e+03
7.350000000000000000e+02	2.414696572459162780e+03
7.360000000000000000e+02	2.391639971382226577e+03
7.370000000000000000e+02	2.368066161894595098e+03
7.380000000000000000e+02	2.343994845813379470e+03
7.390000000000000000e+02	2.319445989990164435e+03
7.400000000000000000e+02	2.294439798884516222e+03
7.410000000000000000e+02	2.268996687052603193e+03
7.420000000000000000e+02	2.243137251602940523e+03
7.430000000000000000e+02	2.216882244670755881e+03
7.440000000000000000e+02	2.190252545961895976e+03
7.450000000000000000e+02	2.163269135416449444e+03
7.460000000000000000e+02	2.135953066041436159e+03
7.470000000000000000e+02	2.108325436960961270e+03
7.480000000000000000e+02	2.080407366731161346e+03
7.490000000000000000e+02	2.052219966966122684e+03
7.500000000000000000e+02	2.023784316319675327e+03
7.510000000000000000e+02	1.995121434866615573e+03
7.520000000000000000e+02	1.966252258925460865e+03
7.530000000000000000e+02	1.937197616363305997e+03
7.540000000000000000e+02	1.907978202421743390e+03
7.550000000000000000e+02	1.878614556101122389e+03
7.560000000000000000e+02	1.849127037138669266e+03
7.570000000000000000e+02	1.819535803614176530e+03
7.580000000000000000e+02	1.789860790215103634e+03
7.590000000000000000e+02	1.760121687191003275e+03
7.600000000000000000e+02	1.730337920025229778e+03
7.610000000000000000e+02	1.700528629849884510e+03
7.620000000000000000e+02	1.670712654627913707e+03
7.630000000000000000e+02	1.640908511124227061e+03
7.640000000000000000e+02	1.611134377685616528e+03
7.650000000000000000e+02	1.581408077847172535e+03
7.660000000000000000e+02	1.551747064780793380e+03
7.670000000000000000e+02	1.522168406599286982e+03
7.680000000000000000e+02	1.492688772527468245e+03
7.690000000000000000e+02	1.463324419949577077e+03
7.700000000000000000e+02	1.434091182340265959e+03
7.710000000000000000e+02	1.405004458084370299e+03
7.720000000000000000e+02	1.376079200188650020e+03
7.730000000000000000e+02	1.347329906886704066e+03
7.740000000000000000e+02	1.318770613136312022e+03
7.750000000000000000e+02	1.290414883006546006e+03
7.760000000000000000e+02	1.262275802950132174e+03
7.770000000000000000e+02	1.234365975954730857e+03
7.780000000000000000e+02	1.206697516565043543e+03
7.790000000000000000e+02	1.179282046765951463e+03
7.800000000000000000e+02	1.152130692715259329e+03
7.810000000000000000e+02	1.125254082313026629e+03
7.820000000000000000e+02	1.098662343592978232e+03
7.830000000000000000e+02	1.072365103920032652e+03
7.840000000000000000e+02	1.046371489976632120e+03
7.850000000000000000e+02	1.020690128519257655e+03
7.860000000000000000e+02	9.953291478853025183e+02
7.870000000000000000e+02	9.702961802293415303e+02
7.880000000000000000e+02	9.455983644667682029e+02
7.890000000000000000e+02	9.212423499018028679e+02
7.900000000000000000e+02	8.972343005159691529e+02
7.910000000000000000e+02	8.735798998923265799e+02
7.920000000000000000e+02	8.502843567500101472e+02
7.930000000000000000e+02	8.273524110629728057e+02
7.940000000000000000e+02	8.047883407362583057e+02
7.950000000000000000e+02	7.825959688126401943e+02
7.960000000000000000e+02	7.607786711820485834e+02
7.970000000000000000e+02	7.393393847658754794e+02
7.980000000000000000e+02	7.182806161479948059e+02
7.990000000000000000e+02	6.976044506241568115e+02
8.000000000000000000e+02	6.773125616413027501e+02
8.010000000000000000e+02	6.574062205983295826e+02
8.020000000000000000e+02	6.378863069798571814e+02
8.030000000000000000e+02	6.187533187946719409e+02
8.040000000000000000e+02	6.000073832906858797e+02
8.050000000000000000e+02	5.816482679184948665e+02
8.060000000000000000e+02	5.636753915159132475e+02
8.070000000000000000e+02	5.460878356862270948e+02
8.080000000000000000e+02	5.288843563433152895e+02
8.090000000000000000e+02	5.120633953972632071e+02
8.100000000000000000e+02	4.956230925546038861e+02
8.110000000000000000e+02	4.795612972078911298e+02
8.120000000000000000e+02	4.638755803899167063e+02
8.130000000000000000e+02	4.485632467685352935e+02
8.140000000000000000e+02	4.336213466587441303e+02
8.150000000000000000e+02	4.190466880293964209e+02
8.160000000000000000e+02	4.048358484826717358e+02
8.170000000000000000e+02	3.909851871852198428e+02
8.180000000000000000e+02	3.774908567306959526e+02
8.190000000000000000e+02	3.643488149142417569e+02
8.200000000000000000e+02	3.515548364003147412e+02
8.210000000000000000e+02	3.391045242661367070e+02
8.220000000000000000e+02	3.269933214039127165e+02
8.230000000000000000e+02	3.152165217658633765e+02
8.240000000000000000e+02	3.037692814370112160e+02
8.250000000000000000e+02	2.926466295215680589e+02
8.260000000000000000e+02	2.818434788296732449e+02
8.270000000000000000e+02	2.713546363521427338e+02
8.280000000000000000e+02	2.611748135117893526e+02
8.290000000000000000e+02	2.512986361807728031e+02
8.300000000000000000e+02	2.417206544543307984e+02
8.310000000000000000e+02	2.324353521721232596e+02
8.320000000000000000e+02	2.234371561792885643e+02
8.330000000000000000e+02	2.147204453201708816e+02
8.340000000000000000e+02	2.062795591585157524e+02
8.350000000000000000e+02	1.981088064187545967e+02
8.360000000000000000e+02	1.902024731438040135e+02
8.370000000000000000e+02	1.825548305655913452e+02
8.380000000000000000e+02	1.751601426852782595e+02
8.390000000000000000e+02	1.680126735608962747e+02
8.400000000000000000e+02	1.611066943008236194e+02
8.410000000000000000e+02	1.544364897622247099e+02
8.420000000000000000e+02	1.479963649542370092e+02
8.430000000000000000e+02	1.417806511463300581e+02
8.440000000000000000e+02	1.357837116828742126e+02
8.450000000000000000e+02	1.299999475055362552e+02
8.460000000000000000e+02	1.244238023856795934e+02
8.470000000000000000e+02	1.190497678694675443e+02
8.480000000000000000e+02	1.138723879388720093e+02
8.490000000000000000e+02	1.088862633922545200e+02
8.500000000000000000e+02	1.040860559486271626e+02
8.510000000000000000e+02	9.946649208011335475e+01
8.520000000000000000e+02	9.502236657750896143e+01
8.530000000000000000e+02	9.074854585419723207e+01
8.540000000000000000e+02	8.663997099399755086e+01
8.550000000000000000e+02	8.269166054882300898e+01
8.560000000000000000e+02	7.889871309229270935e+01
8.570000000000000000e+02	7.525630953568611403e+01
8.580000000000000000e+02	7.175971521284309063e+01
8.590000000000000000e+02	6.840428174080209089e+01
8.600000000000000000e+02	6.518544866313575881e+01
8.610000000000000000e+02	6.209874488308092566e+01
8.620000000000000000e+02	5.913978989367792138e+01
8.630000000000000000e+02	5.630429481222682142e+01
8.640000000000000000e+02	5.358806322644019815e+01
8.650000000000000000e+02	5.098699185972081693e+01
8.660000000000000000e+02	4.849707106302357573e+01
8.670000000000000000e+02	4.611438514076905903e+01
8.680000000000000000e+02	4.383511251827009403e+01
8.690000000000000000e+02	4.165552575810343683e+01
8.700000000000000000e+02	3.957199143281823694e+01
8.710000000000000000e+02	3.758096986131158701e+01
8.720000000000000000e+02	3.567901471612992736e+01
8.730000000000000000e+02	3.386277250886533352e+01
8.740000000000000000e+02	3.212898196071667201e+01
8.750000000000000000e+02	3.047447326517093913e+01
8.760000000000000000e+02	2.889616724963797623e+01
8.770000000000000000e+02	2.739107444273576419e+01
8.780000000000000000e+02	2.595629405378132759e+01
8.790000000000000000e+02	2.458901287088854914e+01
8.800000000000000000e+02	2.328650408391626314e+01
8.810000000000000000e+02	2.204612603834145901e+01
8.820000000000000000e+02	2.086532092596149113e+01
8.830000000000000000e+02	1.974161341814993520e+01
8.840000000000000000e+02	1.867260924720995519e+01
8.850000000000000000e+02	1.765599374118138343e+01
8.860000000000000000e+02	1.668953031727021852e+01
8.870000000000000000e+02	1.577105893887689980e+01
8.880000000000000000e+02	1.489849454100699688e+01
8.890000000000000000e+02	1.406982542865403296e+01
8.900000000000000000e+02	1.328311165254914705e+01
8.910000000000000000e+02	1.253648336647808925e+01
8.920000000000000000e+02	1.182813917017196736e+01
8.930000000000000000e+02	1.115634444158527927e+01
8.940000000000000000e+02	1.051942966218364717e+01
8.950000000000000000e+02	9.915788738674100600e+00
8.960000000000000000e+02	9.343877324424113340e+00
8.970000000000000000e+02	8.802211143631206269e+00
8.980000000000000000e+02	8.289364321124097046e+00
8.990000000000000000e+02	7.803967720498549809e+00
9.000000000000000000e+02	7.344707293117424207e+00
9.010000000000000000e+02	6.910322440334154770e+00
9.020000000000000000e+02	6.499604391133445347e+00
9.030000000000000000e+02	6.111394597221509351e+00
9.040000000000000000e+02	5.744583147441252535e+00
9.050000000000000000e+02	5.398107203236183871e+00
9.060000000000000000e+02	5.070949456739211492e+00
9.070000000000000000e+02	4.762136612920715883e+00
9.080000000000000000e+02	4.470737897092986302e+00
9.090000000000000000e+02	4.195863588936084021e+00
9.100000000000000000e+02	3.936663584083721634e+00
9.110000000000000000e+02	3.692325984185818477e+00
9.120000000000000000e+02	3.462075716248301127e+00
9.130000000000000000e+02	3.245173181939482454e+00
9.140000000000000000e+02	3.040912937446528019e+00
9.150000000000000000e+02	2.848622404364614003e+00
9.160000000000000000e+02	2.667660612005979370e+00
9.170000000000000000e+02	2.497416971425218790e+00
9.180000000000000000e+02	2.337310081371814618e+00
9.190000000000000000e+02	2.186786566300076728e+00
9.200000000000000000e+02	2.045319946490843144e+00
9.210000000000000000e+02	1.912409540268062758e+00
9.220000000000000000e+02	1.787579398226918581e+00
9.230000000000000000e+02	1.670377269327965486e+00
9.240000000000000000e+02	1.560373598654114735e+00
9.250000000000000000e+02	1.457160556573793286e+00
9.260000000000000000e+02	1.360351099004237341e+00
9.270000000000000000e+02	1.269578058423519007e+00
9.280000000000000000e+02	1.184493265238288462e+00
9.290000000000000000e+02	1.104766699076407566e+00
9.300000000000000000e+02	1.030085669539300364e+00
9.310000000000000000e+02	9.601540259179476289e-01
9.320000000000000000e+02	8.946913953488391247e-01
9.330000000000000000e+02	8.334324488616126070e-01
9.340000000000000000e+02	7.761261947486403079e-01
9.350000000000000000e+02	7.225352986680535494e-01
9.360000000000000000e+02	6.724354298756889392e-01
9.370000000000000000e+02	6.256146329679730389e-01
9.380000000000000000e+02	5.818727245066896980e-01
9.390000000000000000e+02	5.410207138877916044e-01
9.400000000000000000e+02	5.028802478097713635e-01
9.410000000000000000e+02	4.672830776924655760e-01
9.420000000000000000e+02	4.340705493944251869e-01
9.430000000000000000e+02	4.030931145759814593e-01
9.440000000000000000e+02	3.742098630557688654e-01
9.450000000000000000e+02	3.472880755106702577e-01
9.460000000000000000e+02	3.222027958726639829e-01
9.470000000000000000e+02	2.988364227809602869e-01
9.480000000000000000e+02	2.770783194538636862e-01
9.490000000000000000e+02	2.568244413519176206e-01
9.500000000000000000e+02	2.379769810120702933e-01
9.510000000000000000e+02	2.204440294415926094e-01
9.520000000000000000e+02	2.041392534703492245e-01
9.530000000000000000e+02	1.889815884705742244e-01
9.540000000000000000e+02	1.748949458645222554e-01
9.550000000000000000e+02	1.618079348521185845e-01
9.560000000000000000e+02	1.496535978030132663e-01
9.570000000000000000e+02	1.383691587701042225e-01
9.580000000000000000e+02	1.278957845946506466e-01
9.590000000000000000e+02	1.181783580864149003e-01
9.600000000000000000e+02	1.091652627758448318e-01
9.610000000000000000e+02	1.008081787490553993e-01
9.620000000000000000e+02	9.306188909024659672e-02
9.630000000000000000e+02	8.588409647015982085e-02
9.640000000000000000e+02	7.923524943317515612e-02
9.650000000000000000e+02	7.307837794965273137e-02
9.660000000000000000e+02	6.737893781408828275e-02
9.670000000000000000e+02	6.210466348353613220e-02
9.680000000000000000e+02	5.722542896454369671e-02
9.690000000000000000e+02	5.271311637048434889e-02
9.700000000000000000e+02	4.854149178467326992e-02
9.710000000000000000e+02	4.468608807795172722e-02
9.720000000000000000e+02	4.112409434252728424e-02
9.730000000000000000e+02	3.783425161673407977e-02
9.740000000000000000e+02	3.479675458801163163e-02
9.750000000000000000e+02	3.199315897377951606e-02
9.760000000000000000e+02	2.940629429199435874e-02
9.770000000000000000e+02	2.702018174500635597e-02
9.780000000000000000e+02	2.481995695187018403e-02
9.790000000000000000e+02	2.279179727551074869e-02
9.800000000000000000e+02	2.092285350208143713e-02
9.810000000000000000e+02	1.920118564048479970e-02
9.820000000000000000e+02	1.761570262034481762e-02
9.830000000000000000e+02	1.615610567672514514e-02
9.840000000000000000e+02	1.481283521957897642e-02
9.850000000000000000e+02	1.357702099528920389e-02
9.860000000000000000e+02	1.244043535672086781e-02
9.870000000000000000e+02	1.139544946695327313e-02
9.880000000000000000e+02	1.043499227029801545e-02
9.890000000000000000e+02	9.552512072339241350e-03
9.900000000000000000e+02	8.741940578559700276e-03
9.910000000000000000e+02	7.997659248644541433e-03
9.920000000000000000e+02	7.314467830789726788e-03
9.930000000000000000e+02	6.687554947287490704e-03
9.940000000000000000e+02	6.112470609325573560e-03
9.950000000000000000e+02	5.585100545323461695e-03
9.960000000000000000e+02	5.101642233246221798e-03
9.970000000000000000e+02	4.658582533190411615e-03
9.980000000000000000e+02	4.252676822133649726e-03
9.990000000000000000e+02	3.880929538087869377e-03
1.000000000000000000e+03	3.540576046002327955e-03
