4.410000000000000000e+02	1.506427565608532138e-01
4.420000000000000000e+02	1.627715356443455996e-01
4.430000000000000000e+02	1.758232015283038296e-01
4.440000000000000000e+02	1.898634739882026912e-01
4.450000000000000000e+02	2.049623909255257892e-01
4.460000000000000000e+02	2.211945643435498654e-01
4.470000000000000000e+02	2.386394494699578539e-01
4.480000000000000000e+02	2.573816275598674874e-01
4.490000000000000000e+02	2.775111029248605865e-01
4.500000000000000000e+02	2.991236147451524774e-01
4.510000000000000000e+02	3.223209642331067437e-01
4.520000000000000000e+02	3.472113577267704754e-01
4.530000000000000000e+02	3.739097663019749218e-01
4.540000000000000000e+02	4.025383025006317173e-01
4.550000000000000000e+02	4.332266147811865142e-01
4.560000000000000000e+02	4.661123003046018232e-01
4.570000000000000000e+02	5.013413366756671596e-01
4.580000000000000000e+02	5.390685332648039729e-01
4.590000000000000000e+02	5.794580027397119304e-01
4.600000000000000000e+02	6.226836534390990385e-01
4.610000000000000000e+02	6.689297032222922823e-01
4.620000000000000000e+02	7.183912154285254648e-01
4.630000000000000000e+02	7.712746575781885827e-01
4.640000000000000000e+02	8.277984834450021756e-01
4.650000000000000000e+02	8.881937391229803858e-01
4.660000000000000000e+02	9.527046937050138720e-01
4.670000000000000000e+02	1.021589495180706297e+00
4.680000000000000000e+02	1.095120852149772617e+00
4.690000000000000000e+02	1.173586741933635214e+00
4.700000000000000000e+02	1.257291145651672437e+00
4.710000000000000000e+02	1.346554810809830638e+00
4.720000000000000000e+02	1.441716041927851633e+00
4.730000000000000000e+02	1.543131519706962607e+00
4.740000000000000000e+02	1.651177149212574191e+00
4.750000000000000000e+02	1.766248937516002426e+00
4.760000000000000000e+02	1.888763901205461782e+00
4.770000000000000000e+02	2.019161004139408355e+00
4.780000000000000000e+02	2.157902125774547208e+00
4.790000000000000000e+02	2.305473060356471482e+00
4.800000000000000000e+02	2.462384547212651764e+00
4.810000000000000000e+02	2.629173332335329683e+00
4.820000000000000000e+02	2.806403261385729042e+00
4.830000000000000000e+02	2.994666404190620579e+00
4.840000000000000000e+02	3.194584210737506869e+00
4.850000000000000000e+02	3.406808698605844565e+00
4.860000000000000000e+02	3.632023671697964140e+00
4.870000000000000000e+02	3.870945970055350571e+00
4.880000000000000000e+02	4.124326750463082725e+00
4.890000000000000000e+02	4.392952797457621905e+00
4.900000000000000000e+02	4.677647864260856991e+00
4.910000000000000000e+02	4.979274043065986532e+00
4.920000000000000000e+02	5.298733163998602613e+00
4.930000000000000000e+02	5.636968221969399728e+00
4.940000000000000000e+02	5.994964830522488519e+00
4.950000000000000000e+02	6.373752701666725251e+00
4.960000000000000000e+02	6.774407150555176393e+00
4.970000000000000000e+02	7.198050623762542344e+00
4.980000000000000000e+02	7.645854250168326871e+00
4.990000000000000000e+02	8.119039423879018003e+00
5.000000000000000000e+02	8.618879650677746085e+00
5.010000000000000000e+02	9.146706498969745525e+00
5.020000000000000000e+02	9.703968373575593276e+00
5.030000000000000000e+02	1.029281210714276185e+01
5.040000000000000000e+02	1.092057846508813590e+01
5.050000000000000000e+02	1.162597791813796277e+01
5.060000000000000000e+02	1.259062431960089690e+01
5.070000000000000000e+02	1.446838511264632210e+01
5.080000000000000000e+02	1.896771714904609851e+01
5.090000000000000000e+02	2.906680907095954325e+01
5.100000000000000000e+02	4.733878276242066363e+01
5.110000000000000000e+02	7.191749179376714096e+01
5.120000000000000000e+02	9.390721982927178146e+01
5.130000000000000000e+02	1.018717640021859268e+02
5.140000000000000000e+02	9.149092351544160806e+01
5.150000000000000000e+02	6.971681192774072144e+01
5.160000000000000000e+02	4.820339734097486684e+01
5.170000000000000000e+02	3.414091022586680424e+01
5.180000000000000000e+02	2.785078177484171746e+01
5.190000000000000000e+02	2.634616402217957187e+01
5.200000000000000000e+02	2.692287373876878576e+01
5.210000000000000000e+02	2.820243273578981302e+01
5.220000000000000000e+02	2.970432468511348034e+01
5.230000000000000000e+02	3.130790036174453306e+01
5.240000000000000000e+02	3.299239704788281813e+01
5.250000000000000000e+02	3.475740911926151711e+01
5.260000000000000000e+02	3.660571854253070967e+01
5.270000000000000000e+02	3.854056035645336209e+01
5.280000000000000000e+02	4.056529431175277267e+01
5.290000000000000000e+02	4.268337520169645671e+01
5.300000000000000000e+02	4.489835125045061659e+01
5.310000000000000000e+02	4.721386442421692919e+01
5.320000000000000000e+02	4.963365073256876769e+01
5.330000000000000000e+02	5.216154040355770860e+01
5.340000000000000000e+02	5.480145792067026633e+01
5.350000000000000000e+02	5.755742191431144761e+01
5.360000000000000000e+02	6.043354490060593776e+01
5.370000000000000000e+02	6.343403286028106436e+01
5.380000000000000000e+02	6.656318465037965382e+01
5.390000000000000000e+02	6.982539124155410093e+01
5.400000000000000000e+02	7.322513477371339263e+01
5.410000000000000000e+02	7.676698742283323895e+01
5.420000000000000000e+02	8.045561007180091906e+01
5.430000000000000000e+02	8.429575077824499374e+01
5.440000000000000000e+02	8.829224303240225424e+01
5.450000000000000000e+02	9.245000379819958880e+01
5.460000000000000000e+02	9.677403133087238984e+01
5.470000000000000000e+02	1.012694027646161175e+02
5.480000000000000000e+02	1.059412714639584578e+02
5.490000000000000000e+02	1.107948641327623562e+02
5.500000000000000000e+02	1.158354776750144453e+02
5.510000000000000000e+02	1.210684758018256701e+02
5.520000000000000000e+02	1.264992853793666967e+02
5.530000000000000000e+02	1.321333925127894702e+02
5.540000000000000000e+02	1.379763383615326120e+02
5.550000000000000000e+02	1.440337146817931568e+02
5.560000000000000000e+02	1.503111590923499818e+02
5.570000000000000000e+02	1.568143500603585494e+02
5.580000000000000000e+02	1.635490016042027150e+02
5.590000000000000000e+02	1.705208577109735018e+02
5.600000000000000000e+02	1.777356864666643617e+02
5.610000000000000000e+02	1.851992738977172621e+02
5.620000000000000000e+02	1.929174175231221682e+02
5.630000000000000000e+02	2.008959196168720780e+02
5.640000000000000000e+02	2.091405801811966114e+02
5.650000000000000000e+02	2.176571896316460482e+02
5.660000000000000000e+02	2.264515211957702832e+02
5.670000000000000000e+02	2.355293230278315946e+02
5.680000000000000000e+02	2.448963100427100130e+02
5.690000000000000000e+02	2.545581554728974538e+02
5.700000000000000000e+02	2.645204821532392430e+02
5.710000000000000000e+02	2.747888535388572109e+02
5.720000000000000000e+02	2.853687644624870359e+02
5.730000000000000000e+02	2.962656316382736463e+02
5.740000000000000000e+02	3.074847839198931183e+02
5.750000000000000000e+02	3.190314523217119245e+02
5.760000000000000000e+02	3.309107598125380036e+02
5.770000000000000000e+02	3.431277108923834476e+02
5.780000000000000000e+02	3.556871809635158570e+02
5.790000000000000000e+02	3.685939055079490458e+02
5.800000000000000000e+02	3.818524690843927942e+02
5.810000000000000000e+02	3.954672941585560011e+02
5.820000000000000000e+02	4.094426297815580824e+02
5.830000000000000000e+02	4.237825401320765764e+02
5.840000000000000000e+02	4.384908929387051444e+02
5.850000000000000000e+02	4.535713477998500593e+02
5.860000000000000000e+02	4.690273444193160799e+02
5.870000000000000000e+02	4.848620907765561583e+02
5.880000000000000000e+02	5.010785512513511435e+02
5.890000000000000000e+02	5.176794347234666702e+02
5.900000000000000000e+02	5.346671826685794713e+02
5.910000000000000000e+02	5.520439572724919799e+02
5.920000000000000000e+02	5.698116295863497953e+02
5.930000000000000000e+02	5.879717677462303982e+02
5.940000000000000000e+02	6.065256252810991100e+02
5.950000000000000000e+02	6.254741295337137217e+02
5.960000000000000000e+02	6.448178702195945107e+02
5.970000000000000000e+02	6.645570881496846596e+02
5.980000000000000000e+02	6.846916641427631021e+02
5.990000000000000000e+02	7.052211081540810937e+02
6.000000000000000000e+02	7.261445486470306605e+02
6.010000000000000000e+02	7.474607222349530957e+02
6.020000000000000000e+02	7.691679636204147528e+02
6.030000000000000000e+02	7.912641958594600737e+02
6.040000000000000000e+02	8.137469209784484292e+02
6.050000000000000000e+02	8.366132109711365956e+02
6.060000000000000000e+02	8.598596992036303845e+02
6.070000000000000000e+02	8.834825722547432179e+02
6.080000000000000000e+02	9.074775622191380080e+02
6.090000000000000000e+02	9.318399395003802965e+02
6.100000000000000000e+02	9.565645061207309254e+02
6.110000000000000000e+02	9.816455895741183895e+02
6.120000000000000000e+02	1.007077037248264219e+03
6.130000000000000000e+02	1.032852211441405416e+03
6.140000000000000000e+02	1.058963984998435990e+03
6.150000000000000000e+02	1.085404737590603190e+03
6.160000000000000000e+02	1.112166352662116196e+03
6.170000000000000000e+02	1.139240215066187147e+03
6.180000000000000000e+02	1.166617209412092279e+03
6.190000000000000000e+02	1.194287719143842651e+03
6.200000000000000000e+02	1.222241626369979940e+03
6.210000000000000000e+02	1.250468312462858421e+03
6.220000000000000000e+02	1.278956659444550723e+03
6.230000000000000000e+02	1.307695052175223282e+03
6.240000000000000000e+02	1.336671381358462213e+03
6.250000000000000000e+02	1.365873047376590648e+03
6.260000000000000000e+02	1.395286964967537187e+03
6.270000000000000000e+02	1.424899568753241965e+03
6.280000000000000000e+02	1.454696819627978130e+03
6.290000000000000000e+02	1.484664212013288306e+03
6.300000000000000000e+02	1.514786781984510981e+03
6.310000000000000000e+02	1.545049116272097535e+03
6.320000000000000000e+02	1.575435362139097151e+03
6.330000000000000000e+02	1.605929238134329353e+03
6.340000000000000000e+02	1.636514045718866100e+03
6.350000000000000000e+02	1.667172681761508784e+03
6.360000000000000000e+02	1.697887651897000751e+03
6.370000000000000000e+02	1.728641084738724885e+03
6.380000000000000000e+02	1.759414746935645326e+03
6.390000000000000000e+02	1.790190059061243346e+03
6.400000000000000000e+02	1.820948112320174687e+03
6.410000000000000000e+02	1.851669686056372484e+03
6.420000000000000000e+02	1.882335266044285390e+03
6.430000000000000000e+02	1.912925063542964608e+03
6.440000000000000000e+02	1.943419035090697889e+03
6.450000000000000000e+02	1.973796903015941325e+03
6.460000000000000000e+02	2.004038176638355480e+03
6.470000000000000000e+02	2.034122174131840666e+03
6.480000000000000000e+02	2.064028045019605543e+03
6.490000000000000000e+02	2.093734793269473357e+03
6.500000000000000000e+02	2.123221300955865900e+03
6.510000000000000000e+02	2.152466352453179297e+03
6.520000000000000000e+02	2.181448659123611378e+03
6.530000000000000000e+02	2.210146884460922138e+03
6.540000000000000000e+02	2.238539669650071573e+03
6.550000000000000000e+02	2.266605659501266018e+03
6.560000000000000000e+02	2.294323528715563953e+03
6.570000000000000000e+02	2.321672008437935801e+03
6.580000000000000000e+02	2.348629913052498068e+03
6.590000000000000000e+02	2.375176167173546673e+03
6.600000000000000000e+02	2.401289832785049384e+03
6.610000000000000000e+02	2.426950136480375477e+03
6.620000000000000000e+02	2.452136496753269057e+03
6.630000000000000000e+02	2.476828551290422183e+03
6.640000000000000000e+02	2.501006184215462781e+03
6.650000000000000000e+02	2.524649553233746246e+03
6.660000000000000000e+02	2.547739116627028125e+03
6.670000000000000000e+02	2.570255660046927460e+03
6.680000000000000000e+02	2.592180323056019461e+03
6.690000000000000000e+02	2.613494625365465254e+03
6.700000000000000000e+02	2.634180492718275218e+03
6.710000000000000000e+02	2.654220282367629807e+03
6.720000000000000000e+02	2.673596808100110593e+03
6.730000000000000000e+02	2.692293364754277718e+03
6.740000000000000000e+02	2.710293752185724315e+03
6.750000000000000000e+02	2.727582298630553396e+03
6.760000000000000000e+02	2.744143883420176280e+03
6.770000000000000000e+02	2.759963959001396233e+03
6.780000000000000000e+02	2.775028572216924204e+03
6.790000000000000000e+02	2.789324384802785062e+03
6.800000000000000000e+02	2.802838693060483365e+03
6.810000000000000000e+02	2.815559446663337894e+03
6.820000000000000000e+02	2.827475266558019484e+03
6.830000000000000000e+02	2.838575461924081537e+03
6.840000000000000000e+02	2.848850046156101143e+03
6.850000000000000000e+02	2.858289751834996423e+03
6.860000000000000000e+02	2.866886044657094772e+03
6.870000000000000000e+02	2.874631136291664461e+03
6.880000000000000000e+02	2.881517996139777097e+03
6.890000000000000000e+02	2.887540361969658534e+03
6.900000000000000000e+02	2.892692749406009625e+03
6.910000000000000000e+02	2.896970460253159672e+03
6.920000000000000000e+02	2.900369589634379736e+03
6.930000000000000000e+02	2.902887031932162699e+03
6.940000000000000000e+02	2.904520485516820372e+03
6.950000000000000000e+02	2.905268456253326349e+03
6.960000000000000000e+02	2.905130259778913569e+03
6.970000000000000000e+02	2.904106022546575332e+03
6.980000000000000000e+02	2.902196681632240143e+03
6.990000000000000000e+02	2.899403983306030113e+03
7.000000000000000000e+02	2.895730480370653368e+03
7.010000000000000000e+02	2.891179528272609787e+03
7.020000000000000000e+02	2.885755279994504690e+03
7.030000000000000000e+02	2.879462679739347550e+03
7.040000000000000000e+02	2.872307455420290353e+03
7.050000000000000000e+02	2.864296109971767692e+03
7.060000000000000000e+02	2.855435911500489965e+03
7.070000000000000000e+02	2.845734882297178956e+03
7.080000000000000000e+02	2.835201786732286109e+03
7.090000000000000000e+02	2.823846118061272136e+03
7.100000000000000000e+02	2.811678084167244378e+03
7.110000000000000000e+02	2.798708592270928420e+03
7.120000000000000000e+02	2.784949232640026821e+03
7.130000000000000000e+02	2.770412261332023718e+03
7.140000000000000000e+02	2.755110582006388540e+03
7.150000000000000000e+02	2.739057726843956516e+03
7.160000000000000000e+02	2.722267836612966221e+03
7.170000000000000000e+02	2.704755639922836508e+03
7.180000000000000000e+02	2.686536431708263990e+03
7.190000000000000000e+02	2.667626050987611961e+03
7.200000000000000000e+02	2.648040857940812202e+03
7.210000000000000000e+02	2.627797710353177990e+03
7.220000000000000000e+02	2.606913939472522088e+03
7.230000000000000000e+02	2.585407325327916169e+03
7.240000000000000000e+02	2.563296071559181200e+03
7.250000000000000000e+02	2.540598779806876337e+03
7.260000000000000000e+02	2.517334423713073193e+03
7.270000000000000000e+02	2.493522322583610276e+03
7.280000000000000000e+02	2.469182114762809306e+03
7.290000000000000000e+02	2.444333730771769297e+03
7.300000000000000000e+02	2.418997366261398383e+03
7.310000000000000000e+02	2.393193454831237887e+03
7.320000000000000000e+02	2.366942640764905263e+03
7.330000000000000000e+02	2.340265751732661101e+03
7.340000000000000000e+02	2.313183771511115538e+03
7.350000000000000000e+02	2.285717812769538796e+03
7.360000000000000000e+02	2.257889089971531575e+03
7.370000000000000000e+02	2.229718892440020227e+03
7.380000000000000000e+02	2.201228557632622596e+03
7.390000000000000000e+02	2.172439444673430899e+03
7.400000000000000000e+02	2.143372908186132008e+03
7.410000000000000000e+02	2.114050272472196411e+03
7.420000000000000000e+02	2.084492806076550096e+03
7.430000000000000000e+02	2.054721696781782157e+03
7.440000000000000000e+02	2.024758027070460457e+03
7.450000000000000000e+02	1.994622750093591549e+03
7.460000000000000000e+02	1.964336666181661030e+03
7.470000000000000000e+02	1.933920399933004092e+03
7.480000000000000000e+02	1.903394377912521122e+03
7.490000000000000000e+02	1.872778806991969759e+03
7.500000000000000000e+02	1.842093653361227325e+03
7.510000000000000000e+02	1.811358622238028374e+03
7.520000000000000000e+02	1.780593138301771887e+03
7.530000000000000000e+02	1.749816326875050208e+03
7.540000000000000000e+02	1.719046995874555250e+03
7.550000000000000000e+02	1.688303618551058435e+03
7.560000000000000000e+02	1.657604317036120165e+03
7.570000000000000000e+02	1.626966846711191693e+03
7.580000000000000000e+02	1.596408581412747935e+03
7.590000000000000000e+02	1.565946499485070490e+03
7.600000000000000000e+02	1.535597170690308076e+03
7.610000000000000000e+02	1.505376743983427787e+03
7.620000000000000000e+02	1.475300936157724209e+03
7.630000000000000000e+02	1.445385021364580098e+03
7.640000000000000000e+02	1.415643821509267127e+03
7.650000000000000000e+02	1.386091697522684626e+03
7.660000000000000000e+02	1.356742541507082024e+03
7.670000000000000000e+02	1.327609769752009925e+03
7.680000000000000000e+02	1.298706316614978050e+03
7.690000000000000000e+02	1.270044629259593421e+03
7.700000000000000000e+02	1.241636663242292798e+03
7.710000000000000000e+02	1.213493878937184945e+03
7.720000000000000000e+02	1.185627238786975340e+03
7.730000000000000000e+02	1.158047205366475282e+03
7.740000000000000000e+02	1.130763740243783786e+03
7.750000000000000000e+02	1.103786303622879586e+03
7.760000000000000000e+02	1.077123854750107284e+03
7.770000000000000000e+02	1.050784853065817515e+03
7.780000000000000000e+02	1.024777260081309805e+03
7.790000000000000000e+02	9.991085419601648709e+02
7.800000000000000000e+02	9.737856727820841343e+02
7.810000000000000000e+02	9.488151384664420220e+02
7.820000000000000000e+02	9.242029413319470450e+02
7.830000000000000000e+02	8.999546052680487946e+02
7.840000000000000000e+02	8.760751814930709997e+02
7.850000000000000000e+02	8.525692548734522234e+02
7.860000000000000000e+02	8.294409507779624846e+02
7.870000000000000000e+02	8.066939424403357179e+02
7.880000000000000000e+02	7.843314588033777000e+02
7.890000000000000000e+02	7.623562928173450928e+02
7.900000000000000000e+02	7.407708101651559218e+02
7.910000000000000000e+02	7.195769583868618611e+02
7.920000000000000000e+02	6.987762763757373250e+02
7.930000000000000000e+02	6.783699042183363872e+02
7.940000000000000000e+02	6.583585933509330061e+02
7.950000000000000000e+02	6.387427170048842981e+02
7.960000000000000000e+02	6.195222809136504338e+02
7.970000000000000000e+02	6.006969342544553001e+02
7.980000000000000000e+02	5.822659807978737945e+02
7.990000000000000000e+02	5.642283902389975765e+02
8.000000000000000000e+02	5.465828096842504920e+02
8.010000000000000000e+02	5.293275752683805422e+02
8.020000000000000000e+02	5.124607238766733417e+02
8.030000000000000000e+02	4.959800049479850941e+02
8.040000000000000000e+02	4.798828923347903128e+02
8.050000000000000000e+02	4.641665961970763874e+02
8.060000000000000000e+02	4.488280749075823337e+02
8.070000000000000000e+02	4.338640469465893261e+02
8.080000000000000000e+02	4.192710027651964424e+02
8.090000000000000000e+02	4.050452165967798805e+02
8.100000000000000000e+02	3.911827581971102745e+02
8.110000000000000000e+02	3.776795044944114466e+02
8.120000000000000000e+02	3.645311511314628206e+02
8.130000000000000000e+02	3.517332238826837170e+02
8.140000000000000000e+02	3.392810899299871608e+02
8.150000000000000000e+02	3.271699689820486583e+02
8.160000000000000000e+02	3.153949442225005555e+02
8.170000000000000000e+02	3.039509730734317259e+02
8.180000000000000000e+02	2.928328977614439736e+02
8.190000000000000000e+02	2.820354556743878902e+02
8.200000000000000000e+02	2.715532894977662295e+02
8.210000000000000000e+02	2.613809571206593887e+02
8.220000000000000000e+02	2.515129413018802893e+02
8.230000000000000000e+02	2.419436590879124651e+02
8.240000000000000000e+02	2.326674709750211321e+02
8.250000000000000000e+02	2.236786898087487430e+02
8.260000000000000000e+02	2.149715894148127688e+02
8.270000000000000000e+02	2.065404129562145386e+02
8.280000000000000000e+02	1.983793810121427157e+02
8.290000000000000000e+02	1.904826993750036195e+02
8.300000000000000000e+02	1.828445665626510390e+02
8.310000000000000000e+02	1.754591810435916557e+02
8.320000000000000000e+02	1.683207481736362467e+02
8.330000000000000000e+02	1.614234868431298366e+02
8.340000000000000000e+02	1.547616358345317735e+02
8.350000000000000000e+02	1.483294598907368425e+02
8.360000000000000000e+02	1.421212554951118534e+02
8.370000000000000000e+02	1.361313563647882461e+02
8.380000000000000000e+02	1.303541386592848710e+02
8.390000000000000000e+02	1.247840259070455460e+02
8.400000000000000000e+02	1.194154936529539839e+02
8.410000000000000000e+02	1.142430738303451250e+02
8.420000000000000000e+02	1.092613588614545961e+02
8.430000000000000000e+02	1.044650054906495455e+02
8.440000000000000000e+02	9.984873835515118401e+01
8.450000000000000000e+02	9.540735329830506828e+01
8.460000000000000000e+02	9.113572043077057572e+01
8.470000000000000000e+02	8.702878694529157144e+01
8.480000000000000000e+02	8.308157969097088369e+01
8.490000000000000000e+02	7.928920751321305715e+01
8.500000000000000000e+02	7.564686336570728997e+01
8.510000000000000000e+02	7.214982620101358179e+01
8.520000000000000000e+02	6.879346264647625731e+01
8.530000000000000000e+02	6.557322847232926222e+01
8.540000000000000000e+02	6.248466985897519521e+01
8.550000000000000000e+02	5.952342447051456986e+01
8.560000000000000000e+02	5.668522234167498652e+01
8.570000000000000000e+02	5.396588658534411564e+01
8.580000000000000000e+02	5.136133392794329922e+01
8.590000000000000000e+02	4.886757507989327109e+01
8.600000000000000000e+02	4.648071494842088924e+01
8.610000000000000000e+02	4.419695269993380293e+01
8.620000000000000000e+02	4.201258167915618458e+01
8.630000000000000000e+02	3.992398919216397957e+01
8.640000000000000000e+02	3.792765616039279308e+01
8.650000000000000000e+02	3.602015665261292554e+01
8.660000000000000000e+02	3.419815730177084845e+01
8.670000000000000000e+02	3.245841661349432172e+01
8.680000000000000000e+02	3.079778417294199500e+01
8.690000000000000000e+02	2.921319975655245926e+01
8.700000000000000000e+02	2.770169235511417583e+01
8.710000000000000000e+02	2.626037911443376771e+01
8.720000000000000000e+02	2.488646419972937807e+01
8.730000000000000000e+02	2.357723758971947348e+01
8.740000000000000000e+02	2.233007380621198124e+01
8.750000000000000000e+02	2.114243058483189230e+01
8.760000000000000000e+02	2.001184749235067528e+01
8.770000000000000000e+02	1.893594449590401396e+01
8.780000000000000000e+02	1.791242048920448937e+01
8.790000000000000000e+02	1.693905178067173267e+01
8.800000000000000000e+02	1.601369054821923754e+01
8.810000000000000000e+02	1.513426326524938936e+01
8.820000000000000000e+02	1.429876910222238529e+01
8.830000000000000000e+02	1.350527830797741302e+01
8.840000000000000000e+02	1.275193057479705239e+01
8.850000000000000000e+02	1.203693339102092885e+01
8.860000000000000000e+02	1.135856038482889829e+01
8.870000000000000000e+02	1.071514966263158009e+01
8.880000000000000000e+02	1.010510214532479267e+01
8.890000000000000000e+02	9.526879905485637678e+00
8.900000000000000000e+02	8.979004508412755214e+00
8.910000000000000000e+02	8.460055359739818925e+00
8.920000000000000000e+02	7.968668062182357126e+00
8.930000000000000000e+02	7.503532783812291385e+00
8.940000000000000000e+02	7.063392640092192032e+00
8.950000000000000000e+02	6.647042091744203240e+00
8.960000000000000000e+02	6.253325360374164532e+00
8.970000000000000000e+02	5.881134863622977882e+00
8.980000000000000000e+02	5.529409671472209631e+00
8.990000000000000000e+02	5.197133985191310757e+00
9.000000000000000000e+02	4.883335640278272827e+00
9.010000000000000000e+02	4.587084634615750112e+00
9.020000000000000000e+02	4.307491682938684008e+00
9.030000000000000000e+02	4.043706798589417062e+00
9.040000000000000000e+02	3.794917903420552463e+00
9.050000000000000000e+02	3.560349466595288614e+00
9.060000000000000000e+02	3.339261172929504973e+00
9.070000000000000000e+02	3.130946621319054657e+00
9.080000000000000000e+02	2.934732053700148668e+00
9.090000000000000000e+02	2.749975114899737783e+00
9.100000000000000000e+02	2.576063643646753221e+00
9.110000000000000000e+02	2.412414494933753595e+00
9.120000000000000000e+02	2.258472393841787884e+00
9.130000000000000000e+02	2.113708820869149019e+00
9.140000000000000000e+02	1.977620928737035655e+00
9.150000000000000000e+02	1.849730490581847020e+00
9.160000000000000000e+02	1.729582879384717442e+00
9.170000000000000000e+02	1.616746078434051936e+00
9.180000000000000000e+02	1.510809722565873647e+00
9.190000000000000000e+02	1.411384169879787764e+00
9.200000000000000000e+02	1.318099603585156210e+00
9.210000000000000000e+02	1.230605163592406459e+00
9.220000000000000000e+02	1.148568107428370233e+00
9.230000000000000000e+02	1.071673000021756250e+00
9.240000000000000000e+02	9.996209318753609407e-01
9.250000000000000000e+02	9.321287651152562193e-01
9.260000000000000000e+02	8.689284068836884423e-01
9.270000000000000000e+02	8.097661095218771088e-01
9.280000000000000000e+02	7.544017969708909366e-01
9.290000000000000000e+02	7.026084168035080513e-01
9.300000000000000000e+02	6.541713172869060289e-01
9.310000000000000000e+02	6.088876488655073915e-01
9.320000000000000000e+02	5.665657894446930465e-01
9.330000000000000000e+02	5.270247928497635570e-01
9.340000000000000000e+02	4.900938598299317550e-01
9.350000000000000000e+02	4.556118309744199291e-01
9.360000000000000000e+02	4.234267009067084198e-01
9.370000000000000000e+02	3.933951531234438082e-01
9.380000000000000000e+02	3.653821148465621338e-01
9.390000000000000000e+02	3.392603312604087762e-01
9.400000000000000000e+02	3.149099585102793086e-01
9.410000000000000000e+02	2.922181748444508398e-01
9.420000000000000000e+02	2.710788092885485501e-01
9.430000000000000000e+02	2.513919872488024621e-01
9.440000000000000000e+02	2.330637924492983681e-01
9.450000000000000000e+02	2.160059446176933740e-01
9.460000000000000000e+02	2.001354923439196409e-01
9.470000000000000000e+02	1.853745205470591351e-01
9.480000000000000000e+02	1.716498719968056752e-01
9.490000000000000000e+02	1.588928823476294105e-01
9.500000000000000000e+02	1.470391281558717789e-01
9.510000000000000000e+02	1.360281873624642202e-01
9.520000000000000000e+02	1.258034117367246019e-01
9.530000000000000000e+02	1.163117107896707303e-01
9.540000000000000000e+02	1.075033466784801328e-01
9.550000000000000000e+02	9.933173963703133269e-02
9.560000000000000000e+02	9.175328348086678187e-02
9.570000000000000000e+02	8.472717074837614326e-02
9.580000000000000000e+02	7.821522705345931858e-02
9.590000000000000000e+02	7.218175423836156734e-02
9.600000000000000000e+02	6.659338192875136064e-02
9.610000000000000000e+02	6.141892710639811764e-02
9.620000000000000000e+02	5.662926132796756995e-02
9.630000000000000000e+02	5.219718523147628270e-02
9.640000000000000000e+02	4.809730998480143960e-02
9.650000000000000000e+02	4.430594534330334344e-02
9.660000000000000000e+02	4.080099399607529931e-02
9.670000000000000000e+02	3.756185189257349455e-02
9.680000000000000000e+02	3.456931425336730312e-02
9.690000000000000000e+02	3.180548698049754514e-02
9.700000000000000000e+02	2.925370319441066708e-02
9.710000000000000000e+02	2.689844463564310117e-02
9.720000000000000000e+02	2.472526768036021824e-02
9.730000000000000000e+02	2.272073372949623069e-02
9.740000000000000000e+02	2.087234374159184155e-02
9.750000000000000000e+02	1.916847668948221811e-02
9.760000000000000000e+02	1.759833173074520224e-02
9.770000000000000000e+02	1.615187389127780218e-02
9.780000000000000000e+02	1.481978307052781232e-02
9.790000000000000000e+02	1.359340618576428128e-02
9.800000000000000000e+02	1.246471228133179399e-02
9.810000000000000000e+02	1.142625043709616373e-02
9.820000000000000000e+02	1.047111031825847388e-02
9.830000000000000000e+02	9.592885216393988446e-03
9.840000000000000000e+02	8.785637438963834686e-03
9.850000000000000000e+02	8.043865911658466469e-03
9.860000000000000000e+02	7.362475864763635969e-03
9.870000000000000000e+02	6.736750481300801847e-03
9.880000000000000000e+02	6.162324390987686078e-03
9.890000000000000000e+02	5.635158900098497826e-03
9.900000000000000000e+02	5.151518853082211538e-03
9.910000000000000000e+02	4.707951027328519805e-03
9.920000000000000000e+02	4.301263967761086160e-03
9.930000000000000000e+02	3.928509172992439118e-03
9.940000000000000000e+02	3.586963549602605484e-03
9.950000000000000000e+02	3.274113055709356335e-03
9.960000000000000000e+02	2.987637459390920288e-03
9.970000000000000000e+02	2.725396141706977037e-03
9.980000000000000000e+02	2.485414878049366748e-03
9.990000000000000000e+02	2.265873535346315734e-03
1.000000000000000000e+03	2.065094626250258206e-03
