nm, A
800.000000, 0.002617
799.000000, 0.001530
798.000000, 0.001616
797.000000, 0.001264
796.000000, 0.001300
795.000000, 0.001090
794.000000, 0.001798
793.000000, 0.002327
792.000000, 0.001330
791.000000, 0.001586
790.000000, 0.001868
789.000000, 0.001321
788.000000, 0.002035
787.000000, 0.002161
786.000000, 0.001118
785.000000, 0.001235
784.000000, -0.000301
783.000000, 0.001310
782.000000, 0.002187
781.000000, 0.002094
780.000000, 0.001496
779.000000, 0.000570
778.000000, 0.000516
777.000000, 0.001427
776.000000, 0.001372
775.000000, 0.001770
774.000000, 0.001531
773.000000, 0.001751
772.000000, 0.001685
771.000000, 0.001115
770.000000, 0.001683
769.000000, 0.001774
768.000000, 0.001870
767.000000, 0.001406
766.000000, 0.001228
765.000000, 0.001866
764.000000, 0.001178
763.000000, 0.001410
762.000000, 0.002172
761.000000, 0.002206
760.000000, 0.001851
759.000000, 0.002177
758.000000, 0.001189
757.000000, 0.001252
756.000000, 0.002747
755.000000, 0.002003
754.000000, 0.002402
753.000000, 0.001765
752.000000, 0.001340
751.000000, 0.001912
750.000000, 0.002154
749.000000, 0.002113
748.000000, 0.001399
747.000000, 0.001265
746.000000, 0.001855
745.000000, 0.001726
744.000000, 0.002129
743.000000, 0.002586
742.000000, 0.002195
741.000000, 0.002606
740.000000, 0.001973
739.000000, 0.001309
738.000000, 0.002399
737.000000, 0.001496
736.000000, 0.002294
735.000000, 0.001942
734.000000, 0.002105
733.000000, 0.001973
732.000000, 0.002385
731.000000, 0.002005
730.000000, 0.002352
729.000000, 0.002137
728.000000, 0.001056
727.000000, 0.002602
726.000000, 0.002481
725.000000, 0.001913
724.000000, 0.001200
723.000000, 0.001090
722.000000, 0.001360
721.000000, 0.002658
720.000000, 0.002889
719.000000, 0.001853
718.000000, 0.001877
717.000000, 0.001254
716.000000, 0.002484
715.000000, 0.002597
714.000000, 0.002293
713.000000, 0.003050
712.000000, 0.002589
711.000000, 0.001385
710.000000, 0.001864
709.000000, 0.002092
708.000000, 0.001110
707.000000, 0.001174
706.000000, 0.002446
705.000000, 0.002077
704.000000, 0.001782
703.000000, 0.002190
702.000000, 0.002214
701.000000, 0.002402
700.000000, 0.002640
699.000000, 0.001765
698.000000, 0.002625
697.000000, 0.002744
696.000000, 0.001983
695.000000, 0.001458
694.000000, 0.001283
693.000000, 0.001232
692.000000, 0.001665
691.000000, 0.002669
690.000000, 0.002226
689.000000, 0.000847
688.000000, 0.002334
687.000000, 0.002492
686.000000, 0.001642
685.000000, 0.001527
684.000000, 0.001296
683.000000, 0.002147
682.000000, 0.002081
681.000000, 0.001161
680.000000, 0.001189
679.000000, 0.001663
678.000000, 0.001495
677.000000, 0.001383
676.000000, 0.002587
675.000000, 0.002747
674.000000, 0.002168
673.000000, 0.001722
672.000000, 0.001941
671.000000, 0.002335
670.000000, 0.001708
669.000000, 0.002063
668.000000, 0.001926
667.000000, 0.001630
666.000000, 0.002239
665.000000, 0.002453
664.000000, 0.002790
663.000000, 0.002132
662.000000, 0.001981
661.000000, 0.002195
660.000000, 0.002722
659.000000, 0.002647
658.000000, 0.001928
657.000000, 0.001707
656.000000, 0.002036
655.000000, 0.001880
654.000000, 0.001177
653.000000, 0.002143
652.000000, 0.003227
651.000000, 0.002061
650.000000, 0.001947
649.000000, 0.001830
648.000000, 0.002180
647.000000, 0.001739
646.000000, 0.002138
645.000000, 0.002360
644.000000, 0.001984
643.000000, 0.002437
642.000000, 0.003257
641.000000, 0.003353
640.000000, 0.002443
639.000000, 0.001706
638.000000, 0.001081
637.000000, 0.002190
636.000000, 0.002406
635.000000, 0.001651
634.000000, 0.000741
633.000000, 0.001484
632.000000, 0.001590
631.000000, 0.002535
630.000000, 0.002708
629.000000, 0.002555
628.000000, 0.002174
627.000000, 0.002364
626.000000, 0.002633
625.000000, 0.002627
624.000000, 0.001990
623.000000, 0.002020
622.000000, 0.002524
621.000000, 0.001744
620.000000, 0.002270
619.000000, 0.002729
618.000000, 0.002313
617.000000, 0.001579
616.000000, 0.002081
615.000000, 0.001808
614.000000, 0.001821
613.000000, 0.001995
612.000000, 0.002853
611.000000, 0.002459
610.000000, 0.002832
609.000000, 0.002592
608.000000, 0.003255
607.000000, 0.002906
606.000000, 0.002558
605.000000, 0.003692
604.000000, 0.002911
603.000000, 0.002456
602.000000, 0.003064
601.000000, 0.003193
600.000000, 0.002919
599.000000, 0.003178
598.000000, 0.002930
597.000000, 0.002490
596.000000, 0.002637
595.000000, 0.003079
594.000000, 0.002966
593.000000, 0.002909
592.000000, 0.004407
591.000000, 0.004786
590.000000, 0.003558
589.000000, 0.002566
588.000000, 0.003528
587.000000, 0.004379
586.000000, 0.002837
585.000000, 0.003853
584.000000, 0.003483
583.000000, 0.003868
582.000000, 0.004186
581.000000, 0.003467
580.000000, 0.002719
579.000000, 0.002317
578.000000, 0.003613
577.000000, 0.003516
576.000000, 0.002343
575.000000, 0.002647
574.000000, 0.002830
573.000000, 0.004161
572.000000, 0.004843
571.000000, 0.004289
570.000000, 0.003758
569.000000, 0.005140
568.000000, 0.004289
567.000000, 0.004702
566.000000, 0.004178
565.000000, 0.004485
564.000000, 0.004901
563.000000, 0.004168
562.000000, 0.004492
561.000000, 0.003824
560.000000, 0.003653
559.000000, 0.004157
558.000000, 0.005960
557.000000, 0.003805
556.000000, 0.003890
555.000000, 0.003839
554.000000, 0.006206
553.000000, 0.005090
552.000000, 0.004895
551.000000, 0.004753
550.000000, 0.005452
549.000000, 0.004906
548.000000, 0.004705
547.000000, 0.005095
546.000000, 0.006290
545.000000, 0.004309
544.000000, 0.005567
543.000000, 0.004917
542.000000, 0.006053
541.000000, 0.006132
540.000000, 0.006506
539.000000, 0.005508
538.000000, 0.005324
537.000000, 0.006146
536.000000, 0.006979
535.000000, 0.005281
534.000000, 0.004484
533.000000, 0.004493
532.000000, 0.005423
531.000000, 0.006292
530.000000, 0.006195
529.000000, 0.005287
528.000000, 0.006606
527.000000, 0.006494
526.000000, 0.005720
525.000000, 0.006865
524.000000, 0.005810
523.000000, 0.006241
522.000000, 0.007335
521.000000, 0.007096
520.000000, 0.007910
519.000000, 0.008023
518.000000, 0.009992
517.000000, 0.012290
516.000000, 0.016028
515.000000, 0.022217
514.000000, 0.028556
513.000000, 0.037987
512.000000, 0.050480
511.000000, 0.062684
510.000000, 0.073088
509.000000, 0.080996
508.000000, 0.084436
507.000000, 0.083089
506.000000, 0.079828
505.000000, 0.075334
504.000000, 0.068504
503.000000, 0.062133
502.000000, 0.056807
501.000000, 0.051989
500.000000, 0.048352
499.000000, 0.045598
498.000000, 0.042980
497.000000, 0.040727
496.000000, 0.040529
495.000000, 0.039945
494.000000, 0.039718
493.000000, 0.039975
492.000000, 0.040454
491.000000, 0.041333
490.000000, 0.041229
489.000000, 0.043215
488.000000, 0.045620
487.000000, 0.048583
486.000000, 0.051460
485.000000, 0.053965
484.000000, 0.057169
483.000000, 0.059729
482.000000, 0.062783
481.000000, 0.064454
480.000000, 0.066015
479.000000, 0.065739
478.000000, 0.064619
477.000000, 0.064508
476.000000, 0.063975
475.000000, 0.061640
474.000000, 0.060771
473.000000, 0.059459
472.000000, 0.057562
471.000000, 0.054860
470.000000, 0.054539
469.000000, 0.052554
468.000000, 0.052049
467.000000, 0.051844
466.000000, 0.051428
465.000000, 0.051409
464.000000, 0.052845
463.000000, 0.054102
462.000000, 0.053796
461.000000, 0.052934
460.000000, 0.051934
459.000000, 0.051118
458.000000, 0.049895
457.000000, 0.048960
456.000000, 0.048072
455.000000, 0.047114
454.000000, 0.045431
453.000000, 0.045986
452.000000, 0.045687
451.000000, 0.045834
450.000000, 0.045930
449.000000, 0.045251
448.000000, 0.045099
447.000000, 0.044366
446.000000, 0.044900
445.000000, 0.045895
444.000000, 0.046463
443.000000, 0.047169
442.000000, 0.046916
441.000000, 0.047390
440.000000, 0.048635
439.000000, 0.050351
438.000000, 0.051040
437.000000, 0.051905
436.000000, 0.053830
435.000000, 0.055573
434.000000, 0.055676
433.000000, 0.055858
432.000000, 0.056527
431.000000, 0.056945
430.000000, 0.058035
429.000000, 0.058593
428.000000, 0.058611
427.000000, 0.058957
426.000000, 0.059244
425.000000, 0.059001
424.000000, 0.058968
423.000000, 0.059901
422.000000, 0.060108
421.000000, 0.059557
420.000000, 0.058589
419.000000, 0.057945
418.000000, 0.058291
417.000000, 0.058153
416.000000, 0.057574
415.000000, 0.058015
414.000000, 0.058546
413.000000, 0.058322
412.000000, 0.057806
411.000000, 0.057314
410.000000, 0.056846
409.000000, 0.056792
408.000000, 0.057411
407.000000, 0.057170
406.000000, 0.057590
405.000000, 0.056988
404.000000, 0.057025
403.000000, 0.058170
402.000000, 0.058716
401.000000, 0.058601
400.000000, 0.057578
399.000000, 0.058784
398.000000, 0.059605
397.000000, 0.059458
396.000000, 0.059998
395.000000, 0.059529
394.000000, 0.059559
393.000000, 0.059304
392.000000, 0.059741
391.000000, 0.059740
390.000000, 0.059355
389.000000, 0.058867
388.000000, 0.058941
387.000000, 0.059354
386.000000, 0.060283
385.000000, 0.060466
384.000000, 0.060869
383.000000, 0.061025
382.000000, 0.061177
381.000000, 0.061414
380.000000, 0.061284
379.000000, 0.062974
378.000000, 0.062018
377.000000, 0.061596
376.000000, 0.061471
375.000000, 0.061287
374.000000, 0.062139
373.000000, 0.063952
372.000000, 0.064271
371.000000, 0.063320
370.000000, 0.062638
369.000000, 0.063466
368.000000, 0.063197
367.000000, 0.063574
366.000000, 0.065676
365.000000, 0.065302
364.000000, 0.065879
363.000000, 0.065736
362.000000, 0.066714
361.000000, 0.066349
360.000000, 0.066612
359.000000, 0.067530
358.000000, 0.067722
357.000000, 0.068275
356.000000, 0.068721
355.000000, 0.068667
354.000000, 0.069367
353.000000, 0.070600
352.000000, 0.071147
351.000000, 0.072268
350.000000, 0.072456
349.000000, 0.072655
348.000000, 0.072832
347.000000, 0.076326
346.000000, 0.077506
345.000000, 0.078346
344.000000, 0.080015
343.000000, 0.080958
342.000000, 0.081599
341.000000, 0.083535
340.000000, 0.084303
339.000000, 0.086156
338.000000, 0.087356
337.000000, 0.091131
336.000000, 0.092157
335.000000, 0.093166
334.000000, 0.094912
333.000000, 0.096746
332.000000, 0.099213
331.000000, 0.101805
330.000000, 0.103890
329.000000, 0.107038
328.000000, 0.110413
327.000000, 0.112803
326.000000, 0.115981
325.000000, 0.120680
324.000000, 0.124485
323.000000, 0.128009
322.000000, 0.132622
321.000000, 0.136537
320.000000, 0.141472
319.000000, 0.143747
318.000000, 0.148151
317.000000, 0.150273
316.000000, 0.151377
315.000000, 0.153879
314.000000, 0.156672
313.000000, 0.157742
312.000000, 0.160852
311.000000, 0.163441
310.000000, 0.164050
309.000000, 0.167872
308.000000, 0.169482
307.000000, 0.171825
306.000000, 0.174626
305.000000, 0.176733
304.000000, 0.179342
303.000000, 0.181337
302.000000, 0.183657
301.000000, 0.184504
300.000000, 0.186927
