nm, A
800.000000, 0.003760
799.000000, 0.001864
798.000000, 0.002041
797.000000, 0.001928
796.000000, 0.001650
795.000000, 0.001634
794.000000, 0.002248
793.000000, 0.001622
792.000000, 0.002109
791.000000, 0.001616
790.000000, 0.001886
789.000000, 0.001493
788.000000, 0.001482
787.000000, 0.001517
786.000000, 0.001844
785.000000, 0.001108
784.000000, 0.000893
783.000000, 0.001872
782.000000, 0.003663
781.000000, 0.000759
780.000000, 0.001558
779.000000, 0.000891
778.000000, 0.000680
777.000000, 0.001456
776.000000, 0.001557
775.000000, 0.002122
774.000000, 0.001259
773.000000, 0.001410
772.000000, 0.001961
771.000000, 0.001719
770.000000, 0.001668
769.000000, 0.001643
768.000000, 0.001348
767.000000, 0.001581
766.000000, 0.001332
765.000000, 0.002267
764.000000, 0.002247
763.000000, 0.001608
762.000000, 0.002433
761.000000, 0.001688
760.000000, 0.001433
759.000000, 0.002209
758.000000, 0.001297
757.000000, 0.001627
756.000000, 0.002661
755.000000, 0.001122
754.000000, 0.002265
753.000000, 0.001520
752.000000, 0.001359
751.000000, 0.001662
750.000000, 0.002092
749.000000, 0.001683
748.000000, 0.002350
747.000000, 0.001863
746.000000, 0.001139
745.000000, 0.000863
744.000000, 0.000891
743.000000, 0.001832
742.000000, 0.002963
741.000000, 0.002098
740.000000, 0.001502
739.000000, 0.001779
738.000000, 0.002060
737.000000, 0.000660
736.000000, 0.001398
735.000000, 0.001874
734.000000, 0.002001
733.000000, 0.001790
732.000000, 0.001401
731.000000, 0.001767
730.000000, 0.001935
729.000000, 0.001985
728.000000, 0.001184
727.000000, 0.002758
726.000000, 0.001767
725.000000, 0.001021
724.000000, 0.000801
723.000000, 0.000806
722.000000, 0.000846
721.000000, 0.002427
720.000000, 0.002250
719.000000, 0.001363
718.000000, 0.002370
717.000000, 0.001063
716.000000, 0.001167
715.000000, 0.002565
714.000000, 0.002216
713.000000, 0.002648
712.000000, 0.002513
711.000000, 0.000661
710.000000, 0.000113
709.000000, 0.000926
708.000000, 0.001545
707.000000, 0.002085
706.000000, 0.002036
705.000000, 0.001258
704.000000, 0.001660
703.000000, 0.002003
702.000000, 0.001707
701.000000, 0.002037
700.000000, 0.002286
699.000000, 0.001792
698.000000, 0.002293
697.000000, 0.001666
696.000000, 0.001641
695.000000, 0.001480
694.000000, 0.001801
693.000000, 0.001992
692.000000, 0.002254
691.000000, 0.002414
690.000000, 0.000935
689.000000, 0.000297
688.000000, 0.001619
687.000000, 0.001117
686.000000, 0.000680
685.000000, 0.001078
684.000000, 0.001221
683.000000, 0.001782
682.000000, 0.001374
681.000000, 0.001255
680.000000, 0.001336
679.000000, 0.001130
678.000000, 0.001581
677.000000, 0.002127
676.000000, 0.002083
675.000000, 0.002032
674.000000, 0.002007
673.000000, 0.001947
672.000000, 0.002404
671.000000, 0.001339
670.000000, 0.001438
669.000000, 0.002544
668.000000, 0.002787
667.000000, 0.002495
666.000000, 0.002499
665.000000, 0.002715
664.000000, 0.002583
663.000000, 0.002699
662.000000, 0.002606
661.000000, 0.002330
660.000000, 0.002546
659.000000, 0.001718
658.000000, 0.002008
657.000000, 0.002209
656.000000, 0.002406
655.000000, 0.002409
654.000000, 0.001559
653.000000, 0.002275
652.000000, 0.002722
651.000000, 0.002583
650.000000, 0.002825
649.000000, 0.002907
648.000000, 0.002574
647.000000, 0.002430
646.000000, 0.002365
645.000000, 0.002456
644.000000, 0.002458
643.000000, 0.002427
642.000000, 0.003084
641.000000, 0.002960
640.000000, 0.002667
639.000000, 0.002710
638.000000, 0.001897
637.000000, 0.001420
636.000000, 0.001492
635.000000, 0.001412
634.000000, 0.001871
633.000000, 0.001933
632.000000, 0.001611
631.000000, 0.001880
630.000000, 0.001361
629.000000, 0.002214
628.000000, 0.002227
627.000000, 0.001896
626.000000, 0.001961
625.000000, 0.001924
624.000000, 0.001590
623.000000, 0.001903
622.000000, 0.002484
621.000000, 0.001712
620.000000, 0.001847
619.000000, 0.003069
618.000000, 0.001882
617.000000, 0.001153
616.000000, 0.002088
615.000000, 0.001683
614.000000, 0.001918
613.000000, 0.001586
612.000000, 0.002616
611.000000, 0.001863
610.000000, 0.002773
609.000000, 0.002418
608.000000, 0.002452
607.000000, 0.001857
606.000000, 0.002492
605.000000, 0.003045
604.000000, 0.002838
603.000000, 0.002229
602.000000, 0.003683
601.000000, 0.002404
600.000000, 0.003118
599.000000, 0.003580
598.000000, 0.002304
597.000000, 0.002901
596.000000, 0.002907
595.000000, 0.002932
594.000000, 0.002609
593.000000, 0.001452
592.000000, 0.004085
591.000000, 0.003829
590.000000, 0.002569
589.000000, 0.002367
588.000000, 0.002312
587.000000, 0.002440
586.000000, 0.002299
585.000000, 0.002881
584.000000, 0.002704
583.000000, 0.002515
582.000000, 0.003096
581.000000, 0.003081
580.000000, 0.002709
579.000000, 0.003119
578.000000, 0.002883
577.000000, 0.002330
576.000000, 0.002469
575.000000, 0.001561
574.000000, 0.003078
573.000000, 0.002864
572.000000, 0.003766
571.000000, 0.003518
570.000000, 0.003249
569.000000, 0.003814
568.000000, 0.002111
567.000000, 0.003003
566.000000, 0.003177
565.000000, 0.003220
564.000000, 0.002856
563.000000, 0.003026
562.000000, 0.004133
561.000000, 0.002137
560.000000, 0.003609
559.000000, 0.004093
558.000000, 0.003199
557.000000, 0.003057
556.000000, 0.003622
555.000000, 0.003049
554.000000, 0.004291
553.000000, 0.004117
552.000000, 0.004087
551.000000, 0.004501
550.000000, 0.004240
549.000000, 0.004264
548.000000, 0.003965
547.000000, 0.003775
546.000000, 0.006135
545.000000, 0.004294
544.000000, 0.004363
543.000000, 0.004185
542.000000, 0.006370
541.000000, 0.005303
540.000000, 0.005355
539.000000, 0.004549
538.000000, 0.003401
537.000000, 0.004818
536.000000, 0.005873
535.000000, 0.004435
534.000000, 0.004657
533.000000, 0.003876
532.000000, 0.004016
531.000000, 0.005338
530.000000, 0.005298
529.000000, 0.005770
528.000000, 0.004240
527.000000, 0.005019
526.000000, 0.004607
525.000000, 0.006226
524.000000, 0.005845
523.000000, 0.006712
522.000000, 0.008854
521.000000, 0.009565
520.000000, 0.011347
519.000000, 0.016564
518.000000, 0.024224
517.000000, 0.035374
516.000000, 0.051304
515.000000, 0.069633
514.000000, 0.083498
513.000000, 0.089868
512.000000, 0.088628
511.000000, 0.082524
510.000000, 0.075779
509.000000, 0.068937
508.000000, 0.062623
507.000000, 0.056982
506.000000, 0.053490
505.000000, 0.049692
504.000000, 0.046443
503.000000, 0.044293
502.000000, 0.042373
501.000000, 0.039883
500.000000, 0.038825
499.000000, 0.037877
498.000000, 0.036794
497.000000, 0.036280
496.000000, 0.036984
495.000000, 0.038034
494.000000, 0.038797
493.000000, 0.040205
492.000000, 0.042448
491.000000, 0.042557
490.000000, 0.044473
489.000000, 0.048062
488.000000, 0.050690
487.000000, 0.055193
486.000000, 0.059187
485.000000, 0.061931
484.000000, 0.063706
483.000000, 0.065037
482.000000, 0.066902
481.000000, 0.067933
480.000000, 0.067209
479.000000, 0.065007
478.000000, 0.062368
477.000000, 0.060505
476.000000, 0.057710
475.000000, 0.054936
474.000000, 0.053939
473.000000, 0.052223
472.000000, 0.050103
471.000000, 0.048329
470.000000, 0.046856
469.000000, 0.045007
468.000000, 0.044323
467.000000, 0.042820
466.000000, 0.042193
465.000000, 0.040653
464.000000, 0.040893
463.000000, 0.040449
462.000000, 0.039615
461.000000, 0.039330
460.000000, 0.038236
459.000000, 0.038104
458.000000, 0.037861
457.000000, 0.036466
456.000000, 0.036443
455.000000, 0.036516
454.000000, 0.036278
453.000000, 0.036430
452.000000, 0.035985
451.000000, 0.036295
450.000000, 0.036300
449.000000, 0.036098
448.000000, 0.036779
447.000000, 0.036683
446.000000, 0.036366
445.000000, 0.037511
444.000000, 0.038421
443.000000, 0.037503
442.000000, 0.037513
441.000000, 0.038050
440.000000, 0.039426
439.000000, 0.041612
438.000000, 0.042222
437.000000, 0.043149
436.000000, 0.044971
435.000000, 0.045979
434.000000, 0.046060
433.000000, 0.047375
432.000000, 0.048129
431.000000, 0.048028
430.000000, 0.049308
429.000000, 0.050107
428.000000, 0.050423
427.000000, 0.050619
426.000000, 0.050810
425.000000, 0.050744
424.000000, 0.051100
423.000000, 0.051883
422.000000, 0.051920
421.000000, 0.050883
420.000000, 0.050381
419.000000, 0.050364
418.000000, 0.049824
417.000000, 0.049500
416.000000, 0.049443
415.000000, 0.049671
414.000000, 0.049711
413.000000, 0.049408
412.000000, 0.049087
411.000000, 0.048640
410.000000, 0.047633
409.000000, 0.047730
408.000000, 0.048663
407.000000, 0.047728
406.000000, 0.047702
405.000000, 0.047918
404.000000, 0.047471
403.000000, 0.047545
402.000000, 0.048107
401.000000, 0.047842
400.000000, 0.047661
399.000000, 0.048738
398.000000, 0.048966
397.000000, 0.048452
396.000000, 0.048905
395.000000, 0.048318
394.000000, 0.048766
393.000000, 0.048540
392.000000, 0.048060
391.000000, 0.049134
390.000000, 0.049068
389.000000, 0.047905
388.000000, 0.048546
387.000000, 0.048850
386.000000, 0.049504
385.000000, 0.049331
384.000000, 0.050324
383.000000, 0.050047
382.000000, 0.049750
381.000000, 0.050967
380.000000, 0.050380
379.000000, 0.050831
378.000000, 0.049647
377.000000, 0.050207
376.000000, 0.050248
375.000000, 0.049868
374.000000, 0.049928
373.000000, 0.051301
372.000000, 0.051434
371.000000, 0.051762
370.000000, 0.051081
369.000000, 0.051982
368.000000, 0.052106
367.000000, 0.050463
366.000000, 0.052354
365.000000, 0.052344
364.000000, 0.053462
363.000000, 0.053555
362.000000, 0.054201
361.000000, 0.054180
360.000000, 0.054471
359.000000, 0.055312
358.000000, 0.055718
357.000000, 0.055745
356.000000, 0.056476
355.000000, 0.057163
354.000000, 0.057452
353.000000, 0.058363
352.000000, 0.059069
351.000000, 0.059543
350.000000, 0.060056
349.000000, 0.060455
348.000000, 0.060435
347.000000, 0.064117
346.000000, 0.064602
345.000000, 0.066045
344.000000, 0.066437
343.000000, 0.066980
342.000000, 0.069521
341.000000, 0.071055
340.000000, 0.071571
339.000000, 0.073784
338.000000, 0.075070
337.000000, 0.077041
336.000000, 0.078169
335.000000, 0.080116
334.000000, 0.080960
333.000000, 0.083527
332.000000, 0.085201
331.000000, 0.087846
330.000000, 0.090376
329.000000, 0.093590
328.000000, 0.097536
327.000000, 0.099547
326.000000, 0.103529
325.000000, 0.107441
324.000000, 0.111549
323.000000, 0.115911
322.000000, 0.119700
321.000000, 0.123724
320.000000, 0.126312
319.000000, 0.128352
318.000000, 0.132276
317.000000, 0.132682
316.000000, 0.133343
315.000000, 0.136067
314.000000, 0.136973
313.000000, 0.138565
312.000000, 0.141452
311.000000, 0.143085
310.000000, 0.143466
309.000000, 0.145517
308.000000, 0.148194
307.000000, 0.150296
306.000000, 0.152931
305.000000, 0.154706
304.000000, 0.156786
303.000000, 0.158436
302.000000, 0.157821
301.000000, 0.159665
300.000000, 0.161315
