4.410000000000000000e+02	4.200594303968262233e-73
4.420000000000000000e+02	6.479750394033380021e-71
4.430000000000000000e+02	9.297119374557793599e-69
4.440000000000000000e+02	1.240740991836607191e-66
4.450000000000000000e+02	1.540126689971010182e-64
4.460000000000000000e+02	1.778174411835138960e-62
4.470000000000000000e+02	1.909566814148648970e-60
4.480000000000000000e+02	1.907383202455977214e-58
4.490000000000000000e+02	1.772081295806145273e-56
4.500000000000000000e+02	1.531341042706277288e-54
4.510000000000000000e+02	1.230843386198478009e-52
4.520000000000000000e+02	9.201873594099675437e-51
4.530000000000000000e+02	6.398708453298761471e-49
4.540000000000000000e+02	4.138576384275401955e-47
4.550000000000000000e+02	2.489729818277485929e-45
4.560000000000000000e+02	1.393144160874402206e-43
4.570000000000000000e+02	7.250742637453593748e-42
4.580000000000000000e+02	3.510035544881023735e-40
4.590000000000000000e+02	1.580458627263674310e-38
4.600000000000000000e+02	6.619075600838501536e-37
4.610000000000000000e+02	2.578422868548729561e-35
4.620000000000000000e+02	9.342294211616579313e-34
4.630000000000000000e+02	3.148440779451745054e-32
4.640000000000000000e+02	9.869158195751382763e-31
4.650000000000000000e+02	2.877446681471368659e-29
4.660000000000000000e+02	7.803277515196054318e-28
4.670000000000000000e+02	1.968291480711663337e-26
4.680000000000000000e+02	4.617898318732102637e-25
4.690000000000000000e+02	1.007724719927429460e-23
4.700000000000000000e+02	2.045417894929496484e-22
4.710000000000000000e+02	3.861577747181631795e-21
4.720000000000000000e+02	6.780943222660297665e-20
4.730000000000000000e+02	1.107536443996796207e-18
4.740000000000000000e+02	1.682552160054800283e-17
4.750000000000000000e+02	2.377506101000605534e-16
4.760000000000000000e+02	3.124764820576784167e-15
4.770000000000000000e+02	3.819931947509500187e-14
4.780000000000000000e+02	4.343466820346111182e-13
4.790000000000000000e+02	4.593672013714079909e-12
4.800000000000000000e+02	4.518830502833437241e-11
4.810000000000000000e+02	4.134611542315935822e-10
4.820000000000000000e+02	3.518730185607640885e-09
4.830000000000000000e+02	2.785350245083555518e-08
4.840000000000000000e+02	2.050766683141286973e-07
4.850000000000000000e+02	1.404414439199728486e-06
4.860000000000000000e+02	8.945753180225180279e-06
4.870000000000000000e+02	5.300064196608474348e-05
4.880000000000000000e+02	2.920706662769850955e-04
4.890000000000000000e+02	1.497053585285203908e-03
4.900000000000000000e+02	7.137224258000664408e-03
4.910000000000000000e+02	3.164928717492055538e-02
4.920000000000000000e+02	1.305392508606305346e-01
4.930000000000000000e+02	5.007960467996301901e-01
4.940000000000000000e+02	1.786994685033247210e+00
4.950000000000000000e+02	5.931004076807548486e+00
4.960000000000000000e+02	1.830947017492814055e+01
4.970000000000000000e+02	5.257338309797128062e+01
4.980000000000000000e+02	1.404102023564159936e+02
4.990000000000000000e+02	3.487980101119560459e+02
5.000000000000000000e+02	8.059199840334741793e+02
5.010000000000000000e+02	1.732018171459876839e+03
5.020000000000000000e+02	3.462227138150314659e+03
5.030000000000000000e+02	6.437263122181840117e+03
5.040000000000000000e+02	1.113241939126907346e+04
5.050000000000000000e+02	1.790690171649309923e+04
5.060000000000000000e+02	2.679130901931174230e+04
5.070000000000000000e+02	3.728292784230786492e+04
5.080000000000000000e+02	4.825792897239535523e+04
5.090000000000000000e+02	5.809917189890431473e+04
5.100000000000000000e+02	6.505996086332520645e+04
5.110000000000000000e+02	6.776418914017337374e+04
5.120000000000000000e+02	6.564917717356010689e+04
5.130000000000000000e+02	5.915628890087494801e+04
5.140000000000000000e+02	4.958098474940497545e+04
5.150000000000000000e+02	3.865199975640670891e+04
5.160000000000000000e+02	2.802666231964486360e+04
5.170000000000000000e+02	1.890224494414431683e+04
5.180000000000000000e+02	1.185763247330470949e+04
5.190000000000000000e+02	6.918710787411549063e+03
5.200000000000000000e+02	3.754870481329738141e+03
5.210000000000000000e+02	1.895428203824375032e+03
5.220000000000000000e+02	8.899432407214242176e+02
5.230000000000000000e+02	3.886510738663658913e+02
5.240000000000000000e+02	1.578701523572531471e+02
5.250000000000000000e+02	5.964619954089131681e+01
5.260000000000000000e+02	2.096081278236027501e+01
5.270000000000000000e+02	6.851348419499981190e+00
5.280000000000000000e+02	2.082987105287894991e+00
5.290000000000000000e+02	5.890331026397993552e-01
5.300000000000000000e+02	1.549299624393404295e-01
5.310000000000000000e+02	3.790301191602500619e-02
5.320000000000000000e+02	8.624910980946334099e-03
5.330000000000000000e+02	1.825484347992461934e-03
5.340000000000000000e+02	3.593719686659336914e-04
5.350000000000000000e+02	6.580408835123370027e-05
5.360000000000000000e+02	1.120738129768402047e-05
5.370000000000000000e+02	1.775407342430145069e-06
5.380000000000000000e+02	2.615980295538941773e-07
5.390000000000000000e+02	3.585201076035488677e-08
5.400000000000000000e+02	4.570199523453698393e-09
5.410000000000000000e+02	5.418753510749459808e-10
5.420000000000000000e+02	5.975939947799149111e-11
5.430000000000000000e+02	6.129931845505637099e-12
5.440000000000000000e+02	5.848542634364366250e-13
5.450000000000000000e+02	5.190178177018631428e-14
5.460000000000000000e+02	4.284098694832269017e-15
5.470000000000000000e+02	3.289116529349702140e-16
5.480000000000000000e+02	2.348776246246584688e-17
5.490000000000000000e+02	1.560079122063482100e-18
5.500000000000000000e+02	9.638161441628653404e-20
5.510000000000000000e+02	5.538400542556035696e-21
5.520000000000000000e+02	2.960173174264229564e-22
5.530000000000000000e+02	1.471609114617667444e-23
5.540000000000000000e+02	6.804722393157299738e-25
5.550000000000000000e+02	2.926651082053861472e-26
5.560000000000000000e+02	1.170776718463987662e-27
5.570000000000000000e+02	4.356320257634714654e-29
5.580000000000000000e+02	1.507676323101784706e-30
5.590000000000000000e+02	4.853321065301047690e-32
5.600000000000000000e+02	1.453156949585335377e-33
5.610000000000000000e+02	4.046957251152161345e-35
5.620000000000000000e+02	1.048304146051519560e-36
5.630000000000000000e+02	2.525739655246147192e-38
5.640000000000000000e+02	5.660208840085161507e-40
5.650000000000000000e+02	1.179828602632660657e-41
5.660000000000000000e+02	2.287430874986190101e-43
5.670000000000000000e+02	4.124958939577113371e-45
5.680000000000000000e+02	6.918849341197827741e-47
5.690000000000000000e+02	1.079420621845758021e-48
5.700000000000000000e+02	1.566354794044452945e-50
5.710000000000000000e+02	2.114132309214724217e-52
5.720000000000000000e+02	2.654096926154462745e-54
5.730000000000000000e+02	3.099159924857657561e-56
5.740000000000000000e+02	3.365997499537975174e-58
5.750000000000000000e+02	3.400370058381491491e-60
5.760000000000000000e+02	3.195075835584495402e-62
5.770000000000000000e+02	2.792407210994517652e-64
5.780000000000000000e+02	2.269963761026951834e-66
5.790000000000000000e+02	1.716333542065345443e-68
5.800000000000000000e+02	1.207054970700466279e-70
5.810000000000000000e+02	7.895779300960620837e-73
5.820000000000000000e+02	4.804028169916441092e-75
5.830000000000000000e+02	2.718683697571346844e-77
5.840000000000000000e+02	1.431048700132307771e-79
5.850000000000000000e+02	7.006364654923542478e-82
5.860000000000000000e+02	3.190609495204862814e-84
5.870000000000000000e+02	1.351441224557222718e-86
5.880000000000000000e+02	5.324309154713048731e-89
5.890000000000000000e+02	1.951065995515469067e-91
5.900000000000000000e+02	6.650024537670804534e-94
5.910000000000000000e+02	2.108225823560214860e-96
5.920000000000000000e+02	6.216609710674227434e-99
5.930000000000000000e+02	1.705032529807297420e-101
5.940000000000000000e+02	4.349650165053944341e-104
5.950000000000000000e+02	1.032092402989316911e-106
5.960000000000000000e+02	2.277851599870312100e-109
5.970000000000000000e+02	4.676003903938173735e-112
5.980000000000000000e+02	8.928261386558826922e-115
5.990000000000000000e+02	1.585628782131098043e-117
6.000000000000000000e+02	2.619260765114997120e-120
6.010000000000000000e+02	4.024375973525622345e-123
6.020000000000000000e+02	5.751232838705046293e-126
6.030000000000000000e+02	7.644796797713011063e-129
6.040000000000000000e+02	9.451778485632817620e-132
6.050000000000000000e+02	1.086935357640248803e-134
6.060000000000000000e+02	1.162616523331340290e-137
6.070000000000000000e+02	1.156676356631096339e-140
6.080000000000000000e+02	1.070359871334356221e-143
6.090000000000000000e+02	9.212773031713487865e-147
6.100000000000000000e+02	7.375534826399674952e-150
6.110000000000000000e+02	5.492110380156657387e-153
6.120000000000000000e+02	3.803886841682810906e-156
6.130000000000000000e+02	2.450521481271348751e-159
6.140000000000000000e+02	1.468358263507346711e-162
6.150000000000000000e+02	8.183670637945114415e-166
6.160000000000000000e+02	4.242353422184574430e-169
6.170000000000000000e+02	2.045540781726472156e-172
6.180000000000000000e+02	9.173858386457139586e-176
6.190000000000000000e+02	3.826824221349182525e-179
6.200000000000000000e+02	1.484798736532043538e-182
6.210000000000000000e+02	5.358450922876943320e-186
6.220000000000000000e+02	1.798678396442319784e-189
6.230000000000000000e+02	5.615783705649209833e-193
6.240000000000000000e+02	1.630834233200102202e-196
6.250000000000000000e+02	4.405060312558095688e-200
6.260000000000000000e+02	1.106716772109579856e-203
6.270000000000000000e+02	2.586209586596620969e-207
6.280000000000000000e+02	5.621258220658539029e-211
6.290000000000000000e+02	1.136438523166629650e-214
6.300000000000000000e+02	2.136982429541589689e-218
6.310000000000000000e+02	3.737649291767811024e-222
6.320000000000000000e+02	6.080492241610375224e-226
6.330000000000000000e+02	9.200713801313823990e-230
6.340000000000000000e+02	1.294931804527129977e-233
6.350000000000000000e+02	1.695176278518123873e-237
6.360000000000000000e+02	2.064074783540179971e-241
6.370000000000000000e+02	2.337645128730963565e-245
6.380000000000000000e+02	2.462489176904732686e-249
6.390000000000000000e+02	2.412751925198228894e-253
6.400000000000000000e+02	2.198839875457476496e-257
6.410000000000000000e+02	1.863876490324946277e-261
6.420000000000000000e+02	1.469546218814840234e-265
6.430000000000000000e+02	1.077685306882135138e-269
6.440000000000000000e+02	7.350946580656332443e-274
6.450000000000000000e+02	4.663770431450678654e-278
6.460000000000000000e+02	2.752159853948805433e-282
6.470000000000000000e+02	1.510611335153365897e-286
6.480000000000000000e+02	7.712131316626528765e-291
6.490000000000000000e+02	3.662171653865496539e-295
6.500000000000000000e+02	1.692771439304543442e-299
6.510000000000000000e+02	5.807980954210351972e-299
6.520000000000000000e+02	4.421103321032723989e-297
6.530000000000000000e+02	3.319972804696118196e-295
6.540000000000000000e+02	2.459414900790210120e-293
6.550000000000000000e+02	1.797307909986544610e-291
6.560000000000000000e+02	1.295706338524624630e-289
6.570000000000000000e+02	9.214761369014124925e-288
6.580000000000000000e+02	6.464798820962123399e-286
6.590000000000000000e+02	4.474240741861114666e-284
6.600000000000000000e+02	3.054759989329868176e-282
6.610000000000000000e+02	2.057445079439338727e-280
6.620000000000000000e+02	1.367013554015005000e-278
6.630000000000000000e+02	8.960057611152815775e-277
6.640000000000000000e+02	5.793515797259598330e-275
6.650000000000000000e+02	3.695447194520326526e-273
6.660000000000000000e+02	2.325333338817996095e-271
6.670000000000000000e+02	1.443433723090273742e-269
6.680000000000000000e+02	8.838974659767577851e-268
6.690000000000000000e+02	5.339496941585818943e-266
6.700000000000000000e+02	3.181941620388127829e-264
6.710000000000000000e+02	1.870585159515637719e-262
6.720000000000000000e+02	1.084816228963134823e-260
6.730000000000000000e+02	6.206235837510228906e-259
6.740000000000000000e+02	3.502626167501451504e-257
6.750000000000000000e+02	1.950081278574038452e-255
6.760000000000000000e+02	1.071038419953143049e-253
6.770000000000000000e+02	5.802976328424390725e-252
6.780000000000000000e+02	3.101629795021160686e-250
6.790000000000000000e+02	1.635394500213776514e-248
6.800000000000000000e+02	8.506453216019374294e-247
6.810000000000000000e+02	4.364835840017380527e-245
6.820000000000000000e+02	2.209432426145106053e-243
6.830000000000000000e+02	1.103283045627318656e-241
6.840000000000000000e+02	5.434837672420060125e-240
6.850000000000000000e+02	2.641068235163526955e-238
6.860000000000000000e+02	1.266094372896463422e-236
6.870000000000000000e+02	5.987505802185335822e-235
6.880000000000000000e+02	2.793310590398976241e-233
6.890000000000000000e+02	1.285540965423679985e-231
6.900000000000000000e+02	5.836413121121165788e-230
6.910000000000000000e+02	2.613963636494182280e-228
6.920000000000000000e+02	1.154905554903685782e-226
6.930000000000000000e+02	5.033693995714067888e-225
6.940000000000000000e+02	2.164315467567683013e-223
6.950000000000000000e+02	9.180106670745860673e-222
6.960000000000000000e+02	3.841212239694354085e-220
6.970000000000000000e+02	1.585558581157010535e-218
6.980000000000000000e+02	6.456389056936421435e-217
6.990000000000000000e+02	2.593525396357621409e-215
7.000000000000000000e+02	1.027743477711551297e-213
7.010000000000000000e+02	4.017652454676422550e-212
7.020000000000000000e+02	1.549363832406208563e-210
7.030000000000000000e+02	5.894240795567378261e-209
7.040000000000000000e+02	2.212054109477418886e-207
7.050000000000000000e+02	8.189493267955814562e-206
7.060000000000000000e+02	2.990967722704473731e-204
7.070000000000000000e+02	1.077605587005369181e-202
7.080000000000000000e+02	3.830022756714425295e-201
7.090000000000000000e+02	1.342877157231006371e-199
7.100000000000000000e+02	4.644774458961174736e-198
7.110000000000000000e+02	1.584843512035810528e-196
7.120000000000000000e+02	5.334596235898071097e-195
7.130000000000000000e+02	1.771373462368301370e-193
7.140000000000000000e+02	5.802459607435968340e-192
7.150000000000000000e+02	1.875027016560562580e-190
7.160000000000000000e+02	5.977180149460253453e-189
7.170000000000000000e+02	1.879656856371497606e-187
7.180000000000000000e+02	5.831149994593309399e-186
7.190000000000000000e+02	1.784527580811813713e-184
7.200000000000000000e+02	5.387480710851045409e-183
7.210000000000000000e+02	1.604506954616189369e-181
7.220000000000000000e+02	4.714014254511737386e-180
7.230000000000000000e+02	1.366260746550000597e-178
7.240000000000000000e+02	3.906336957892589229e-177
7.250000000000000000e+02	1.101791013913528435e-175
7.260000000000000000e+02	3.065647111189491177e-174
7.270000000000000000e+02	8.414697514274096715e-173
7.280000000000000000e+02	2.278495988310813338e-171
7.290000000000000000e+02	6.086273152413408759e-170
7.300000000000000000e+02	1.603791926705849393e-168
7.310000000000000000e+02	4.169058779282784118e-167
7.320000000000000000e+02	1.069107621379489596e-165
7.330000000000000000e+02	2.704570114439702705e-164
7.340000000000000000e+02	6.749451422540197748e-163
7.350000000000000000e+02	1.661621561846673239e-161
7.360000000000000000e+02	4.035424015952892584e-160
7.370000000000000000e+02	9.668066776662757573e-159
7.380000000000000000e+02	2.284985878740866395e-157
7.390000000000000000e+02	5.327467530830123791e-156
7.400000000000000000e+02	1.225325621057094078e-154
7.410000000000000000e+02	2.780197378577421386e-153
7.420000000000000000e+02	6.222904791438390427e-152
7.430000000000000000e+02	1.374054932239181463e-150
7.440000000000000000e+02	2.993011918623421856e-149
7.450000000000000000e+02	6.431410185839347459e-148
7.460000000000000000e+02	1.363318675475190096e-146
7.470000000000000000e+02	2.850899913095793602e-145
7.480000000000000000e+02	5.881119032450346555e-144
7.490000000000000000e+02	1.196827005720264232e-142
7.500000000000000000e+02	2.402681491661765666e-141
7.510000000000000000e+02	4.758328681300424876e-140
7.520000000000000000e+02	9.296213391393475131e-139
7.530000000000000000e+02	1.791641621054388286e-137
7.540000000000000000e+02	3.406352698573384302e-136
7.550000000000000000e+02	6.388832409502084142e-135
7.560000000000000000e+02	1.182079785101258150e-133
7.570000000000000000e+02	2.157572991344587000e-132
7.580000000000000000e+02	3.884880062325560588e-131
7.590000000000000000e+02	6.900541082680939381e-130
7.600000000000000000e+02	1.209155312171269500e-128
7.610000000000000000e+02	2.090135504504710009e-127
7.620000000000000000e+02	3.564184759896595657e-126
7.630000000000000000e+02	5.995692996891399771e-125
7.640000000000000000e+02	9.949745617912822134e-124
7.650000000000000000e+02	1.628838326243618643e-122
7.660000000000000000e+02	2.630494474258747179e-121
7.670000000000000000e+02	4.190735200614161001e-120
7.680000000000000000e+02	6.586223408250262376e-119
7.690000000000000000e+02	1.021118414612166878e-117
7.700000000000000000e+02	1.561741569697662414e-116
7.710000000000000000e+02	2.356327459479288278e-115
7.720000000000000000e+02	3.507159604902558943e-114
7.730000000000000000e+02	5.149544652259368939e-113
7.740000000000000000e+02	7.458912942281453306e-112
7.750000000000000000e+02	1.065799863208505277e-110
7.760000000000000000e+02	1.502343332995331624e-109
7.770000000000000000e+02	2.089085140080591323e-108
7.780000000000000000e+02	2.865738100226872290e-107
7.790000000000000000e+02	3.878021990991249193e-106
7.800000000000000000e+02	5.176991468066722462e-105
7.810000000000000000e+02	6.817702448306575811e-104
7.820000000000000000e+02	8.857110209374437528e-103
7.830000000000000000e+02	1.135113963949407245e-101
7.840000000000000000e+02	1.435093825668163836e-100
7.850000000000000000e+02	1.789841351395451691e-99
7.860000000000000000e+02	2.202126134549890903e-98
7.870000000000000000e+02	2.672780269228158845e-97
7.880000000000000000e+02	3.200204518904799372e-96
7.890000000000000000e+02	3.779946243816996607e-95
7.900000000000000000e+02	4.404401734917669289e-94
7.910000000000000000e+02	5.062693533066137747e-93
7.920000000000000000e+02	5.740764928151036840e-92
7.930000000000000000e+02	6.421719048261397757e-91
7.940000000000000000e+02	7.086409586747239326e-90
7.950000000000000000e+02	7.714266032080242860e-89
7.960000000000000000e+02	8.284310822412653823e-88
7.970000000000000000e+02	8.776302221251394956e-87
7.980000000000000000e+02	9.171918085763751709e-86
7.990000000000000000e+02	9.455884885885947879e-85
8.000000000000000000e+02	9.616955305353941362e-84
8.010000000000000000e+02	9.648647287182890570e-83
8.020000000000000000e+02	9.549676850280728087e-82
8.030000000000000000e+02	9.324044398661446700e-81
8.040000000000000000e+02	8.980766437339013174e-80
8.050000000000000000e+02	8.533277771194310149e-79
8.060000000000000000e+02	7.998559425260574406e-78
8.070000000000000000e+02	7.396071154005757226e-77
8.080000000000000000e+02	6.746581910476432705e-76
8.090000000000000000e+02	6.070995715128049562e-75
8.100000000000000000e+02	5.389264106326942819e-74
8.110000000000000000e+02	4.719461199420884599e-73
8.120000000000000000e+02	4.077075789209009133e-72
8.130000000000000000e+02	3.474549965401359282e-71
8.140000000000000000e+02	2.921068558031190170e-70
8.150000000000000000e+02	2.422581245071128666e-69
8.160000000000000000e+02	1.982021509781948846e-68
8.170000000000000000e+02	1.599675111566921752e-67
8.180000000000000000e+02	1.273645672930358750e-66
8.190000000000000000e+02	1.000365885507839823e-65
8.200000000000000000e+02	7.751085606939428092e-65
8.210000000000000000e+02	5.924607799221033347e-64
8.220000000000000000e+02	4.467351144212209289e-63
8.230000000000000000e+02	3.323027893544624305e-62
8.240000000000000000e+02	2.438435627704102428e-61
8.250000000000000000e+02	1.765151619386605706e-60
8.260000000000000000e+02	1.260509571468668594e-59
8.270000000000000000e+02	8.879810382252358812e-59
8.280000000000000000e+02	6.170987238137562701e-58
8.290000000000000000e+02	4.230571277067834895e-57
8.300000000000000000e+02	2.861124766125498521e-56
8.310000000000000000e+02	1.908833238689559132e-55
8.320000000000000000e+02	1.256297781680668921e-54
8.330000000000000000e+02	8.156627119909808689e-54
8.340000000000000000e+02	5.224226971876011298e-53
8.350000000000000000e+02	3.300858268261743345e-52
8.360000000000000000e+02	2.057430288630609668e-51
8.370000000000000000e+02	1.265076513476098010e-50
8.380000000000000000e+02	7.673647916014452079e-50
8.390000000000000000e+02	4.591772437341545417e-49
8.400000000000000000e+02	2.710517756524446574e-48
8.410000000000000000e+02	1.578401803611723090e-47
8.420000000000000000e+02	9.067264659486605728e-47
8.430000000000000000e+02	5.138406141327269664e-46
8.440000000000000000e+02	2.872592192772898565e-45
8.450000000000000000e+02	1.584210675370777668e-44
8.460000000000000000e+02	8.618770314842845989e-44
8.470000000000000000e+02	4.625632128213103915e-43
8.480000000000000000e+02	2.449008465865023221e-42
8.490000000000000000e+02	1.279095273081567295e-41
8.500000000000000000e+02	6.590356583498713787e-41
8.510000000000000000e+02	3.349718756459135584e-40
8.520000000000000000e+02	1.679581910496583068e-39
8.530000000000000000e+02	8.307826993512272910e-39
8.540000000000000000e+02	4.053844739665538868e-38
8.550000000000000000e+02	1.951372546954039327e-37
8.560000000000000000e+02	9.266306947144941000e-37
8.570000000000000000e+02	4.340768106378601363e-36
8.580000000000000000e+02	2.005949062820664770e-35
8.590000000000000000e+02	9.144640313372648028e-35
8.600000000000000000e+02	4.112508108555230319e-34
8.610000000000000000e+02	1.824485089408338487e-33
8.620000000000000000e+02	7.984859552031410193e-33
8.630000000000000000e+02	3.447368085342222193e-32
8.640000000000000000e+02	1.468254849163425320e-31
8.650000000000000000e+02	6.168912964144900987e-31
8.660000000000000000e+02	2.556873570049905072e-30
8.670000000000000000e+02	1.045450024105725319e-29
8.680000000000000000e+02	4.216874848969551624e-29
8.690000000000000000e+02	1.677921190861666971e-28
8.700000000000000000e+02	6.586365352423045165e-28
8.710000000000000000e+02	2.550430472470580558e-27
8.720000000000000000e+02	9.742593255744817221e-27
8.730000000000000000e+02	3.671377705721144307e-26
8.740000000000000000e+02	1.364825012928473514e-25
8.750000000000000000e+02	5.005163765892068323e-25
8.760000000000000000e+02	1.810727188275480415e-24
8.770000000000000000e+02	6.462211462669951886e-24
8.780000000000000000e+02	2.275111679692490869e-23
8.790000000000000000e+02	7.901648138913129293e-23
8.800000000000000000e+02	2.707235680147902500e-22
8.810000000000000000e+02	9.150142461075285992e-22
8.820000000000000000e+02	3.050865475278507253e-21
8.830000000000000000e+02	1.003486820134366991e-20
8.840000000000000000e+02	3.256069747819651039e-20
8.850000000000000000e+02	1.042243361792331617e-19
8.860000000000000000e+02	3.291076580951109559e-19
8.870000000000000000e+02	1.025180296158303985e-18
8.880000000000000000e+02	3.150329099984440250e-18
8.890000000000000000e+02	9.550036053935389390e-18
8.900000000000000000e+02	2.855929677418718093e-17
8.910000000000000000e+02	8.425262091338071075e-17
8.920000000000000000e+02	2.451956391557723662e-16
8.930000000000000000e+02	7.039397281369919733e-16
8.940000000000000000e+02	1.993662418399141782e-15
8.950000000000000000e+02	5.570076763265457938e-15
8.960000000000000000e+02	1.535197132298440972e-14
8.970000000000000000e+02	4.174077732600621604e-14
8.980000000000000000e+02	1.119567612802554137e-13
8.990000000000000000e+02	2.962330653496993515e-13
9.000000000000000000e+02	7.732325904751157304e-13
9.010000000000000000e+02	1.991040895724827349e-12
9.020000000000000000e+02	5.057590030022746980e-12
9.030000000000000000e+02	1.267361401621660817e-11
9.040000000000000000e+02	3.132930365536661240e-11
9.050000000000000000e+02	7.640018670545813545e-11
9.060000000000000000e+02	1.837940761948513825e-10
9.070000000000000000e+02	4.361762470599222025e-10
9.080000000000000000e+02	1.021141496505906492e-09
9.090000000000000000e+02	2.358322805940418086e-09
9.100000000000000000e+02	5.372964714568236988e-09
9.110000000000000000e+02	1.207586190888605131e-08
9.120000000000000000e+02	2.677415046367920942e-08
9.130000000000000000e+02	5.856075580474813152e-08
9.140000000000000000e+02	1.263546004418653782e-07
9.150000000000000000e+02	2.689483326784892401e-07
9.160000000000000000e+02	5.647289681291276486e-07
9.170000000000000000e+02	1.169781334077152689e-06
9.180000000000000000e+02	2.390356740440826655e-06
9.190000000000000000e+02	4.818525547379620826e-06
9.200000000000000000e+02	9.582063029285088160e-06
9.210000000000000000e+02	1.879737876767059214e-05
9.220000000000000000e+02	3.637717537589071079e-05
9.230000000000000000e+02	6.944709233435359720e-05
9.240000000000000000e+02	1.307894074796512826e-04
9.250000000000000000e+02	2.429878114656183969e-04
9.260000000000000000e+02	4.453380658521225669e-04
9.270000000000000000e+02	8.051718070182983583e-04
9.280000000000000000e+02	1.436086874284631717e-03
9.290000000000000000e+02	2.526773292601280831e-03
9.300000000000000000e+02	4.385763964599279779e-03
9.310000000000000000e+02	7.509614507714159302e-03
9.320000000000000000e+02	1.268479476274692562e-02
9.330000000000000000e+02	2.113696643471711656e-02
9.340000000000000000e+02	3.474523734089941807e-02
9.350000000000000000e+02	5.634317541442047245e-02
9.360000000000000000e+02	9.013236532944185475e-02
9.370000000000000000e+02	1.422373423698535255e-01
9.380000000000000000e+02	2.214317548778631795e-01
9.390000000000000000e+02	3.400631603959516913e-01
9.400000000000000000e+02	5.151962382769029736e-01
9.410000000000000000e+02	7.699795521027698042e-01
9.420000000000000000e+02	1.135217592204489812e+00
9.430000000000000000e+02	1.651096456239897092e+00
9.440000000000000000e+02	2.368967975649416857e+00
9.450000000000000000e+02	3.353044725320352359e+00
9.460000000000000000e+02	4.681800621114431848e+00
9.470000000000000000e+02	6.448814659672709837e+00
9.480000000000000000e+02	8.762747303173854974e+00
9.490000000000000000e+02	1.174611077529204195e+01
9.500000000000000000e+02	1.553249808220402528e+01
9.510000000000000000e+02	2.026198255113193980e+01
9.520000000000000000e+02	2.607449928692987129e+01
9.530000000000000000e+02	3.310117647422988085e+01
9.540000000000000000e+02	4.145379486008981473e+01
9.550000000000000000e+02	5.121280579123283871e+01
9.560000000000000000e+02	6.241460959558411048e+01
9.570000000000000000e+02	7.503905540841188326e+01
9.580000000000000000e+02	8.899833270434069732e+01
9.590000000000000000e+02	1.041285437441863735e+02
9.600000000000000000e+02	1.201852388295722704e+02
9.610000000000000000e+02	1.368440373645084094e+02
9.620000000000000000e+02	1.537071389641433825e+02
9.630000000000000000e+02	1.703160635471358262e+02
9.640000000000000000e+02	1.861703841143082911e+02
9.650000000000000000e+02	2.007515886326297903e+02
9.660000000000000000e+02	2.135506012936412787e+02
9.670000000000000000e+02	2.240969875187076639e+02
9.680000000000000000e+02	2.319875349922743908e+02
9.690000000000000000e+02	2.369118009048942781e+02
9.700000000000000000e+02	2.386723722989404166e+02
9.710000000000000000e+02	2.371979971174681054e+02
9.720000000000000000e+02	2.325483686571264741e+02
9.730000000000000000e+02	2.249101156676144058e+02
9.740000000000000000e+02	2.145843735170914783e+02
9.750000000000000000e+02	2.019670900318737665e+02
9.760000000000000000e+02	1.875238607560509934e+02
9.770000000000000000e+02	1.717615202103013985e+02
9.780000000000000000e+02	1.551988957009855028e+02
9.790000000000000000e+02	1.383390504032733759e+02
9.800000000000000000e+02	1.216450288346106277e+02
9.810000000000000000e+02	1.055206245663018905e+02
9.820000000000000000e+02	9.029708956778252116e+01
9.830000000000000000e+02	7.622607604935210190e+01
9.840000000000000000e+02	6.347851919633185247e+01
9.850000000000000000e+02	5.214869230654009158e+01
9.860000000000000000e+02	4.226233319647013786e+01
9.870000000000000000e+02	3.378756769986368624e+01
9.880000000000000000e+02	2.664733612578157462e+01
9.890000000000000000e+02	2.073213763071856164e+01
9.900000000000000000e+02	1.591211021926151759e+01
9.910000000000000000e+02	1.204772055203186198e+01
9.920000000000000000e+02	8.998609474726928070e+00
9.930000000000000000e+02	6.630393987501203235e+00
9.940000000000000000e+02	4.819441117656779738e+00
9.950000000000000000e+02	3.455790715828664705e+00
9.960000000000000000e+02	2.444508774442687216e+00
9.970000000000000000e+02	1.705804200002302595e+00
9.980000000000000000e+02	1.174248922283117391e+00
9.990000000000000000e+02	7.974153163349320117e-01
1.000000000000000000e+03	5.341981601495258136e-01
