4.410000000000000000e+02	8.183819424198064468e-75
4.420000000000000000e+02	1.426277566006620301e-72
4.430000000000000000e+02	2.307682560953558567e-70
4.440000000000000000e+02	3.466347423544539579e-68
4.450000000000000000e+02	4.833838243304520128e-66
4.460000000000000000e+02	6.258008398439181473e-64
4.470000000000000000e+02	7.521495045232903709e-62
4.480000000000000000e+02	8.392593912201063676e-60
4.490000000000000000e+02	8.693852133358777076e-58
4.500000000000000000e+02	8.360885825866504025e-56
4.510000000000000000e+02	7.464768437787407551e-54
4.520000000000000000e+02	6.187345836988755327e-52
4.530000000000000000e+02	4.761200232753348487e-50
4.540000000000000000e+02	3.401359254035854278e-48
4.550000000000000000e+02	2.255862201215792021e-46
4.560000000000000000e+02	1.388982051016025330e-44
4.570000000000000000e+02	7.939711165364936756e-43
4.580000000000000000e+02	4.213439648307733527e-41
4.590000000000000000e+02	2.075835120199152748e-39
4.600000000000000000e+02	9.494518320039766231e-38
4.610000000000000000e+02	4.031596152891690447e-36
4.620000000000000000e+02	1.589297174164754538e-34
4.630000000000000000e+02	5.816439352303071177e-33
4.640000000000000000e+02	1.976210947385406583e-31
4.650000000000000000e+02	6.233520631976999208e-30
4.660000000000000000e+02	1.825397727592777805e-28
4.670000000000000000e+02	4.962558205758292785e-27
4.680000000000000000e+02	1.252499973980908380e-25
4.690000000000000000e+02	2.934768447442748856e-24
4.700000000000000000e+02	6.384015910092126834e-23
4.710000000000000000e+02	1.289252802026453153e-21
4.720000000000000000e+02	2.417164520829685354e-20
4.730000000000000000e+02	4.207250221103504911e-19
4.740000000000000000e+02	6.798521520004292262e-18
4.750000000000000000e+02	1.019893009507426665e-16
4.760000000000000000e+02	1.420426471516455060e-15
4.770000000000000000e+02	1.836567536704711606e-14
4.780000000000000000e+02	2.204545431822724397e-13
4.790000000000000000e+02	2.456717429355185679e-12
4.800000000000000000e+02	2.541647770204074529e-11
4.810000000000000000e+02	2.441178440119666172e-10
4.820000000000000000e+02	2.176745677823029107e-09
4.830000000000000000e+02	1.801938065157977318e-08
4.840000000000000000e+02	1.384828626008430187e-07
4.850000000000000000e+02	9.880438261626047632e-07
4.860000000000000000e+02	6.544559026900328480e-06
4.870000000000000000e+02	4.024468876811402522e-05
4.880000000000000000e+02	2.297527725706190020e-04
4.890000000000000000e+02	1.217690597635448513e-03
4.900000000000000000e+02	5.991521859242457219e-03
4.910000000000000000e+02	2.736915236872108567e-02
4.920000000000000000e+02	1.160672114320016463e-01
4.930000000000000000e+02	4.569637579534732152e-01
4.940000000000000000e+02	1.670236491490727060e+00
4.950000000000000000e+02	5.667586829747127908e+00
4.960000000000000000e+02	1.785428244013380095e+01
4.970000000000000000e+02	5.221684439985776294e+01
4.980000000000000000e+02	1.417760422341241338e+02
4.990000000000000000e+02	3.573708114295022824e+02
5.000000000000000000e+02	8.362946369003146856e+02
5.010000000000000000e+02	1.816868724038940400e+03
5.020000000000000000e+02	3.664475226358707914e+03
5.030000000000000000e+02	6.861578477701168595e+03
5.040000000000000000e+02	1.192779821601670483e+04
5.050000000000000000e+02	1.924954798577284237e+04
5.060000000000000000e+02	2.884063326938735554e+04
5.070000000000000000e+02	4.011557783179685794e+04
5.080000000000000000e+02	5.180185549836747668e+04
5.090000000000000000e+02	6.210142756958758400e+04
5.100000000000000000e+02	6.911651869030880334e+04
5.110000000000000000e+02	7.141445568925331463e+04
5.120000000000000000e+02	6.850375999522127677e+04
5.130000000000000000e+02	6.100517710861602245e+04
5.140000000000000000e+02	5.043627208693063585e+04
5.150000000000000000e+02	3.871179144262793852e+04
5.160000000000000000e+02	2.758465544353647783e+04
5.170000000000000000e+02	1.824802476424295673e+04
5.180000000000000000e+02	1.120696881586583004e+04
5.190000000000000000e+02	6.389758864077193721e+03
5.200000000000000000e+02	3.382242781372618083e+03
5.210000000000000000e+02	1.662069162393011993e+03
5.220000000000000000e+02	7.582587119732411338e+02
5.230000000000000000e+02	3.211513334950169565e+02
5.240000000000000000e+02	1.262775229669088475e+02
5.250000000000000000e+02	4.609633346832679024e+01
5.260000000000000000e+02	1.562178710582739605e+01
5.270000000000000000e+02	4.914949398665998892e+00
5.280000000000000000e+02	1.435593194212761547e+00
5.290000000000000000e+02	3.892850579791810595e-01
5.300000000000000000e+02	9.800045269354001887e-02
5.310000000000000000e+02	2.290405790913169551e-02
5.320000000000000000e+02	4.969592608223502919e-03
5.330000000000000000e+02	1.001043953837832141e-03
5.340000000000000000e+02	1.872015798335679450e-04
5.350000000000000000e+02	3.250048754430931745e-05
5.360000000000000000e+02	5.238346788470814152e-06
5.370000000000000000e+02	7.838313332311842655e-07
5.380000000000000000e+02	1.088867406245671261e-07
5.390000000000000000e+02	1.404272462833021995e-08
5.400000000000000000e+02	1.681325365361886508e-09
5.410000000000000000e+02	1.868857355660558883e-10
5.420000000000000000e+02	1.928521776705280897e-11
5.430000000000000000e+02	1.847553163288950112e-12
5.440000000000000000e+02	1.643211042175331316e-13
5.450000000000000000e+02	1.356793483560065869e-14
5.460000000000000000e+02	1.040059433047451213e-15
5.470000000000000000e+02	7.401616330499664180e-17
5.480000000000000000e+02	4.890114016194531672e-18
5.490000000000000000e+02	2.999407027726139739e-19
5.500000000000000000e+02	1.707952656472536940e-20
5.510000000000000000e+02	9.029012521667659622e-22
5.520000000000000000e+02	4.431274832833127075e-23
5.530000000000000000e+02	2.019022325048949370e-24
5.540000000000000000e+02	8.540387175386949602e-26
5.550000000000000000e+02	3.353806500178894724e-27
5.560000000000000000e+02	1.222707140116583977e-28
5.570000000000000000e+02	4.138385067248368807e-30
5.580000000000000000e+02	1.300359252325214637e-31
5.590000000000000000e+02	3.793322872679532546e-33
5.600000000000000000e+02	1.027307056125124167e-34
5.610000000000000000e+02	2.582883014546731927e-36
5.620000000000000000e+02	6.028832324117750360e-38
5.630000000000000000e+02	1.306428596351775212e-39
5.640000000000000000e+02	2.628222655759434056e-41
5.650000000000000000e+02	4.908656422473216771e-43
5.660000000000000000e+02	8.511127946616584446e-45
5.670000000000000000e+02	1.370047445397059695e-46
5.680000000000000000e+02	2.047425457817288544e-48
5.690000000000000000e+02	2.840564104110020301e-50
5.700000000000000000e+02	3.658685624611476771e-52
5.710000000000000000e+02	4.374914774656012374e-54
5.720000000000000000e+02	4.856664509693045652e-56
5.730000000000000000e+02	5.005305788829136266e-58
5.740000000000000000e+02	4.789025279536617367e-60
5.750000000000000000e+02	4.253903639335677523e-62
5.760000000000000000e+02	3.507940109301569353e-64
5.770000000000000000e+02	2.685596090782833254e-66
5.780000000000000000e+02	1.908768352907438584e-68
5.790000000000000000e+02	1.259475603359596980e-70
5.800000000000000000e+02	7.715255215361211470e-73
5.810000000000000000e+02	4.387678905417373667e-75
5.820000000000000000e+02	2.316559092310823572e-77
5.830000000000000000e+02	1.135470699154735415e-79
5.840000000000000000e+02	5.166928886392484280e-82
5.850000000000000000e+02	2.182795454182305316e-84
5.860000000000000000e+02	8.560864059897833806e-87
5.870000000000000000e+02	3.117067197054496485e-89
5.880000000000000000e+02	1.053655728276085439e-91
5.890000000000000000e+02	3.306551597824405768e-94
5.900000000000000000e+02	9.633317616980870483e-97
5.910000000000000000e+02	2.605556281841936549e-99
5.920000000000000000e+02	6.542579998691889309e-102
5.930000000000000000e+02	1.525181849873756871e-104
5.940000000000000000e+02	3.300792462942858994e-107
5.950000000000000000e+02	6.631912892848426957e-110
5.960000000000000000e+02	1.237039056050367700e-112
5.970000000000000000e+02	2.142160532007068266e-115
5.980000000000000000e+02	3.443853109200204929e-118
5.990000000000000000e+02	5.139977628507367400e-121
6.000000000000000000e+02	7.121997913598583900e-124
6.010000000000000000e+02	9.161497327853642567e-127
6.020000000000000000e+02	1.094095118159827108e-129
6.030000000000000000e+02	1.213019283572078951e-132
6.040000000000000000e+02	1.248545384474677575e-135
6.050000000000000000e+02	1.193067364014311885e-138
6.060000000000000000e+02	1.058399441546512640e-141
6.070000000000000000e+02	8.716823290969781565e-145
6.080000000000000000e+02	6.664857767670462751e-148
6.090000000000000000e+02	4.730941014360661478e-151
6.100000000000000000e+02	3.117655934504446653e-154
6.110000000000000000e+02	1.907360742811769526e-157
6.120000000000000000e+02	1.083331817825991201e-160
6.130000000000000000e+02	5.712341480968422524e-164
6.140000000000000000e+02	2.796345491871722868e-167
6.150000000000000000e+02	1.270841821408418087e-170
6.160000000000000000e+02	5.361868670245259425e-174
6.170000000000000000e+02	2.100220292826922064e-177
6.180000000000000000e+02	7.637259232348590210e-181
6.190000000000000000e+02	2.578304565870887330e-184
6.200000000000000000e+02	8.080810213880886055e-188
6.210000000000000000e+02	2.351254285752661736e-191
6.220000000000000000e+02	6.351382924327411188e-195
6.230000000000000000e+02	1.592799086117846484e-198
6.240000000000000000e+02	3.708324260398811880e-202
6.250000000000000000e+02	8.015274692458819672e-206
6.260000000000000000e+02	1.608359478554791412e-209
6.270000000000000000e+02	2.996207168662604935e-213
6.280000000000000000e+02	5.181846674274598344e-217
6.290000000000000000e+02	8.319960837024553565e-221
6.300000000000000000e+02	1.240172249918109167e-224
6.310000000000000000e+02	1.716195427266310119e-228
6.320000000000000000e+02	2.204831857659073652e-232
6.330000000000000000e+02	2.629712157214945643e-236
6.340000000000000000e+02	2.911822896202321166e-240
6.350000000000000000e+02	2.993268690340242964e-244
6.360000000000000000e+02	2.856606717253811014e-248
6.370000000000000000e+02	2.530924599655723763e-252
6.380000000000000000e+02	2.081766256441508772e-256
6.390000000000000000e+02	1.589676397859365386e-260
6.400000000000000000e+02	1.126962568914273913e-264
6.410000000000000000e+02	7.417102157393470750e-269
6.420000000000000000e+02	4.531928335113784240e-273
6.430000000000000000e+02	2.570726120429362875e-277
6.440000000000000000e+02	1.353794018249070287e-281
6.450000000000000000e+02	6.618710340343436510e-286
6.460000000000000000e+02	3.004126132989862955e-290
6.470000000000000000e+02	1.265863726185256785e-294
6.480000000000000000e+02	4.951989907342650396e-299
6.490000000000000000e+02	1.798442472337066029e-303
6.500000000000000000e+02	6.063695073386526569e-308
6.510000000000000000e+02	1.898026012890856765e-312
6.520000000000000000e+02	5.504949089219232611e-317
6.530000000000000000e+02	0.000000000000000000e+00
6.540000000000000000e+02	0.000000000000000000e+00
6.550000000000000000e+02	0.000000000000000000e+00
6.560000000000000000e+02	0.000000000000000000e+00
6.570000000000000000e+02	0.000000000000000000e+00
6.580000000000000000e+02	0.000000000000000000e+00
6.590000000000000000e+02	0.000000000000000000e+00
6.600000000000000000e+02	0.000000000000000000e+00
6.610000000000000000e+02	0.000000000000000000e+00
6.620000000000000000e+02	0.000000000000000000e+00
6.630000000000000000e+02	0.000000000000000000e+00
6.640000000000000000e+02	0.000000000000000000e+00
6.650000000000000000e+02	0.000000000000000000e+00
6.660000000000000000e+02	0.000000000000000000e+00
6.670000000000000000e+02	0.000000000000000000e+00
6.680000000000000000e+02	0.000000000000000000e+00
6.690000000000000000e+02	0.000000000000000000e+00
6.700000000000000000e+02	0.000000000000000000e+00
6.710000000000000000e+02	0.000000000000000000e+00
6.720000000000000000e+02	0.000000000000000000e+00
6.730000000000000000e+02	0.000000000000000000e+00
6.740000000000000000e+02	0.000000000000000000e+00
6.750000000000000000e+02	0.000000000000000000e+00
6.760000000000000000e+02	0.000000000000000000e+00
6.770000000000000000e+02	0.000000000000000000e+00
6.780000000000000000e+02	0.000000000000000000e+00
6.790000000000000000e+02	0.000000000000000000e+00
6.800000000000000000e+02	0.000000000000000000e+00
6.810000000000000000e+02	0.000000000000000000e+00
6.820000000000000000e+02	0.000000000000000000e+00
6.830000000000000000e+02	0.000000000000000000e+00
6.840000000000000000e+02	0.000000000000000000e+00
6.850000000000000000e+02	0.000000000000000000e+00
6.860000000000000000e+02	0.000000000000000000e+00
6.870000000000000000e+02	0.000000000000000000e+00
6.880000000000000000e+02	0.000000000000000000e+00
6.890000000000000000e+02	0.000000000000000000e+00
6.900000000000000000e+02	0.000000000000000000e+00
6.910000000000000000e+02	0.000000000000000000e+00
6.920000000000000000e+02	0.000000000000000000e+00
6.930000000000000000e+02	0.000000000000000000e+00
6.940000000000000000e+02	0.000000000000000000e+00
6.950000000000000000e+02	0.000000000000000000e+00
6.960000000000000000e+02	0.000000000000000000e+00
6.970000000000000000e+02	0.000000000000000000e+00
6.980000000000000000e+02	0.000000000000000000e+00
6.990000000000000000e+02	0.000000000000000000e+00
7.000000000000000000e+02	0.000000000000000000e+00
7.010000000000000000e+02	0.000000000000000000e+00
7.020000000000000000e+02	0.000000000000000000e+00
7.030000000000000000e+02	0.000000000000000000e+00
7.040000000000000000e+02	0.000000000000000000e+00
7.050000000000000000e+02	0.000000000000000000e+00
7.060000000000000000e+02	0.000000000000000000e+00
7.070000000000000000e+02	0.000000000000000000e+00
7.080000000000000000e+02	0.000000000000000000e+00
7.090000000000000000e+02	0.000000000000000000e+00
7.100000000000000000e+02	0.000000000000000000e+00
7.110000000000000000e+02	0.000000000000000000e+00
7.120000000000000000e+02	0.000000000000000000e+00
7.130000000000000000e+02	0.000000000000000000e+00
7.140000000000000000e+02	0.000000000000000000e+00
7.150000000000000000e+02	0.000000000000000000e+00
7.160000000000000000e+02	0.000000000000000000e+00
7.170000000000000000e+02	0.000000000000000000e+00
7.180000000000000000e+02	0.000000000000000000e+00
7.190000000000000000e+02	0.000000000000000000e+00
7.200000000000000000e+02	0.000000000000000000e+00
7.210000000000000000e+02	0.000000000000000000e+00
7.220000000000000000e+02	0.000000000000000000e+00
7.230000000000000000e+02	0.000000000000000000e+00
7.240000000000000000e+02	0.000000000000000000e+00
7.250000000000000000e+02	0.000000000000000000e+00
7.260000000000000000e+02	0.000000000000000000e+00
7.270000000000000000e+02	0.000000000000000000e+00
7.280000000000000000e+02	0.000000000000000000e+00
7.290000000000000000e+02	0.000000000000000000e+00
7.300000000000000000e+02	0.000000000000000000e+00
7.310000000000000000e+02	0.000000000000000000e+00
7.320000000000000000e+02	0.000000000000000000e+00
7.330000000000000000e+02	0.000000000000000000e+00
7.340000000000000000e+02	0.000000000000000000e+00
7.350000000000000000e+02	0.000000000000000000e+00
7.360000000000000000e+02	0.000000000000000000e+00
7.370000000000000000e+02	0.000000000000000000e+00
7.380000000000000000e+02	0.000000000000000000e+00
7.390000000000000000e+02	0.000000000000000000e+00
7.400000000000000000e+02	0.000000000000000000e+00
7.410000000000000000e+02	0.000000000000000000e+00
7.420000000000000000e+02	0.000000000000000000e+00
7.430000000000000000e+02	0.000000000000000000e+00
7.440000000000000000e+02	0.000000000000000000e+00
7.450000000000000000e+02	0.000000000000000000e+00
7.460000000000000000e+02	0.000000000000000000e+00
7.470000000000000000e+02	0.000000000000000000e+00
7.480000000000000000e+02	0.000000000000000000e+00
7.490000000000000000e+02	0.000000000000000000e+00
7.500000000000000000e+02	0.000000000000000000e+00
7.510000000000000000e+02	0.000000000000000000e+00
7.520000000000000000e+02	1.117082425247058436e-320
7.530000000000000000e+02	7.733001853608647423e-318
7.540000000000000000e+02	5.766085747217550111e-315
7.550000000000000000e+02	4.173305068829935597e-312
7.560000000000000000e+02	2.931692065801554583e-309
7.570000000000000000e+02	1.998921625650500319e-306
7.580000000000000000e+02	1.322855408597549106e-303
7.590000000000000000e+02	8.497050201104233572e-301
7.600000000000000000e+02	5.297405118957548961e-298
7.610000000000000000e+02	3.205511841957083648e-295
7.620000000000000000e+02	1.882655166010076835e-292
7.630000000000000000e+02	1.073206689483708236e-289
7.640000000000000000e+02	5.937931150741643060e-287
7.650000000000000000e+02	3.188791622412470278e-284
7.660000000000000000e+02	1.662096821648878708e-281
7.670000000000000000e+02	8.408638726959980899e-279
7.680000000000000000e+02	4.128899045750967784e-276
7.690000000000000000e+02	1.967804868866327992e-273
7.700000000000000000e+02	9.102674083939510716e-271
7.710000000000000000e+02	4.086910732891951268e-268
7.720000000000000000e+02	1.780986003304793936e-265
7.730000000000000000e+02	7.532949515148086591e-263
7.740000000000000000e+02	3.092493555850255241e-260
7.750000000000000000e+02	1.232229908614457127e-257
7.760000000000000000e+02	4.765559367318376072e-255
7.770000000000000000e+02	1.788855326928736193e-252
7.780000000000000000e+02	6.517420599430356197e-250
7.790000000000000000e+02	2.304705696673876676e-247
7.800000000000000000e+02	7.910326284669997627e-245
7.810000000000000000e+02	2.635193532377628546e-242
7.820000000000000000e+02	8.520593180367281450e-240
7.830000000000000000e+02	2.674030401216726283e-237
7.840000000000000000e+02	8.145205516347484377e-235
7.850000000000000000e+02	2.408113480901280032e-232
7.860000000000000000e+02	6.910206840453310520e-230
7.870000000000000000e+02	1.924617105207600957e-227
7.880000000000000000e+02	5.202796404681621023e-225
7.890000000000000000e+02	1.365112733192249141e-222
7.900000000000000000e+02	3.476477313905198887e-220
7.910000000000000000e+02	8.593092322385781605e-218
7.920000000000000000e+02	2.061573162049227655e-215
7.930000000000000000e+02	4.800508266595623347e-213
7.940000000000000000e+02	1.084962900136299005e-210
7.950000000000000000e+02	2.380026265740373791e-208
7.960000000000000000e+02	5.067430579943677061e-206
7.970000000000000000e+02	1.047208266590764628e-203
7.980000000000000000e+02	2.100474975232051214e-201
7.990000000000000000e+02	4.089226416570344686e-199
8.000000000000000000e+02	7.726877010341416910e-197
8.010000000000000000e+02	1.417118075181718236e-194
8.020000000000000000e+02	2.522593493894696296e-192
8.030000000000000000e+02	4.358406174099556373e-190
8.040000000000000000e+02	7.308821020029920202e-188
8.050000000000000000e+02	1.189614225021057235e-185
8.060000000000000000e+02	1.879334846335303022e-183
8.070000000000000000e+02	2.881650989526594150e-181
8.080000000000000000e+02	4.288622205202309874e-179
8.090000000000000000e+02	6.194887095726808639e-177
8.100000000000000000e+02	8.685367459762702488e-175
8.110000000000000000e+02	1.181903979446471655e-172
8.120000000000000000e+02	1.561044877629418129e-170
8.130000000000000000e+02	2.001187484568311401e-168
8.140000000000000000e+02	2.490000095329006415e-166
8.150000000000000000e+02	3.007115749876446927e-164
8.160000000000000000e+02	3.524845799848851497e-162
8.170000000000000000e+02	4.010230136393288683e-160
8.180000000000000000e+02	4.428306432731047683e-158
8.190000000000000000e+02	4.746191216854624029e-156
8.200000000000000000e+02	4.937328150292874579e-154
8.210000000000000000e+02	4.985146782378459784e-152
8.220000000000000000e+02	4.885433471799419301e-150
8.230000000000000000e+02	4.646944150973610931e-148
8.240000000000000000e+02	4.290135392665614160e-146
8.250000000000000000e+02	3.844268735867321011e-144
8.260000000000000000e+02	3.343456498438239052e-142
8.270000000000000000e+02	2.822388606498894394e-140
8.280000000000000000e+02	2.312475496505322537e-138
8.290000000000000000e+02	1.838978555029936523e-136
8.300000000000000000e+02	1.419434595738432638e-134
8.310000000000000000e+02	1.063391790635821919e-132
8.320000000000000000e+02	7.732330638844331477e-131
8.330000000000000000e+02	5.457160482829050303e-129
8.340000000000000000e+02	3.738197396972032518e-127
8.350000000000000000e+02	2.485403650363650208e-125
8.360000000000000000e+02	1.603876148435862089e-123
8.370000000000000000e+02	1.004578599196487793e-121
8.380000000000000000e+02	6.107116589486540971e-120
8.390000000000000000e+02	3.603526300442446536e-118
8.400000000000000000e+02	2.063756134111377787e-116
8.410000000000000000e+02	1.147171249447390421e-114
8.420000000000000000e+02	6.189240048983528087e-113
8.430000000000000000e+02	3.241048992811060401e-111
8.440000000000000000e+02	1.647301375055362638e-109
8.450000000000000000e+02	8.126428560965036496e-108
8.460000000000000000e+02	3.891038954800104668e-106
8.470000000000000000e+02	1.808300621585718415e-104
8.480000000000000000e+02	8.156707343293998625e-103
8.490000000000000000e+02	3.571069686938982970e-101
8.500000000000000000e+02	1.517472977261361082e-99
8.510000000000000000e+02	6.258680802798308167e-98
8.520000000000000000e+02	2.505439012165498597e-96
8.530000000000000000e+02	9.734733445590471434e-95
8.540000000000000000e+02	3.671161489518871434e-93
8.550000000000000000e+02	1.343761238996894502e-91
8.560000000000000000e+02	4.773972646566688982e-90
8.570000000000000000e+02	1.646178551827871373e-88
8.580000000000000000e+02	5.509512180572085717e-87
8.590000000000000000e+02	1.789734261995990020e-85
8.600000000000000000e+02	5.642910377409267638e-84
8.610000000000000000e+02	1.726859281859913537e-82
8.620000000000000000e+02	5.129203639903843636e-81
8.630000000000000000e+02	1.478707005186713547e-79
8.640000000000000000e+02	4.137647746447724284e-78
8.650000000000000000e+02	1.123735485334368606e-76
8.660000000000000000e+02	2.962196549216490848e-75
8.670000000000000000e+02	7.578841841057457914e-74
8.680000000000000000e+02	1.882049373533172914e-72
8.690000000000000000e+02	4.536264577746195174e-71
8.700000000000000000e+02	1.061218805125265945e-69
8.710000000000000000e+02	2.409631842061938388e-68
8.720000000000000000e+02	5.310502845075949549e-67
8.730000000000000000e+02	1.135951512486771254e-65
8.740000000000000000e+02	2.358430802692925818e-64
8.750000000000000000e+02	4.752538881831424632e-63
8.760000000000000000e+02	9.295385697528811586e-62
8.770000000000000000e+02	1.764608419499652308e-60
8.780000000000000000e+02	3.251385579516059813e-59
8.790000000000000000e+02	5.814706513063375314e-58
8.800000000000000000e+02	1.009314051592108347e-56
8.810000000000000000e+02	1.700450662290577795e-55
8.820000000000000000e+02	2.780615553667533472e-54
8.830000000000000000e+02	4.413235020274688520e-53
8.840000000000000000e+02	6.798488383528413792e-52
8.850000000000000000e+02	1.016498775552082528e-50
8.860000000000000000e+02	1.475164851027777539e-49
8.870000000000000000e+02	2.077846436459031435e-48
8.880000000000000000e+02	2.840701075949119994e-47
8.890000000000000000e+02	3.769439868689397169e-46
8.900000000000000000e+02	4.854754797809955091e-45
8.910000000000000000e+02	6.068718255034741705e-44
8.920000000000000000e+02	7.363187290624139791e-43
8.930000000000000000e+02	8.671094418150581494e-42
8.940000000000000000e+02	9.911084503896885634e-41
8.950000000000000000e+02	1.099531406444846166e-39
8.960000000000000000e+02	1.183949816679164133e-38
8.970000000000000000e+02	1.237365908680494669e-37
8.980000000000000000e+02	1.255168969784552716e-36
8.990000000000000000e+02	1.235792166105888091e-35
9.000000000000000000e+02	1.180940121091737677e-34
9.010000000000000000e+02	1.095341426279552177e-33
9.020000000000000000e+02	9.860759004320611698e-33
9.030000000000000000e+02	8.616092890321259161e-32
9.040000000000000000e+02	7.307176474623234364e-31
9.050000000000000000e+02	6.014894518455320635e-30
9.060000000000000000e+02	4.805578005109682057e-29
9.070000000000000000e+02	3.726511302112419520e-28
9.080000000000000000e+02	2.804777728692874151e-27
9.090000000000000000e+02	2.048960819039216017e-26
9.100000000000000000e+02	1.452807433180644816e-25
9.110000000000000000e+02	9.998196056629319461e-25
9.120000000000000000e+02	6.678430950686924699e-24
9.130000000000000000e+02	4.329785956677810257e-23
9.140000000000000000e+02	2.724567744983387730e-22
9.150000000000000000e+02	1.664056202531495075e-21
9.160000000000000000e+02	9.864556522219254799e-21
9.170000000000000000e+02	5.675790240380103151e-20
9.180000000000000000e+02	3.169671859653897107e-19
9.190000000000000000e+02	1.718072424980096236e-18
9.200000000000000000e+02	9.038738598573106636e-18
9.210000000000000000e+02	4.615442894656659714e-17
9.220000000000000000e+02	2.287484358812696053e-16
9.230000000000000000e+02	1.100378459742553100e-15
9.240000000000000000e+02	5.137658383634392081e-15
9.250000000000000000e+02	2.328239015496815765e-14
9.260000000000000000e+02	1.024068712645818186e-13
9.270000000000000000e+02	4.371896066457921936e-13
9.280000000000000000e+02	1.811547624859981842e-12
9.290000000000000000e+02	7.285659645195815859e-12
9.300000000000000000e+02	2.843984322656141969e-11
9.310000000000000000e+02	1.077518444700173309e-10
9.320000000000000000e+02	3.962428366410251429e-10
9.330000000000000000e+02	1.414286288784163096e-09
9.340000000000000000e+02	4.899507580492569246e-09
9.350000000000000000e+02	1.647429099321023611e-08
9.360000000000000000e+02	5.376507150919851309e-08
9.370000000000000000e+02	1.703071646370248694e-07
9.380000000000000000e+02	5.236062302937184128e-07
9.390000000000000000e+02	1.562485113560753564e-06
9.400000000000000000e+02	4.525495810135729366e-06
9.410000000000000000e+02	1.272200734374433229e-05
9.420000000000000000e+02	3.471237370889620132e-05
9.430000000000000000e+02	9.192892454789454665e-05
9.440000000000000000e+02	2.362975627358605997e-04
9.450000000000000000e+02	5.895294441382606604e-04
9.460000000000000000e+02	1.427548774554578516e-03
9.470000000000000000e+02	3.355178314947726212e-03
9.480000000000000000e+02	7.653841297010684913e-03
9.490000000000000000e+02	1.694659675280222114e-02
9.500000000000000000e+02	3.641872472751755269e-02
9.510000000000000000e+02	7.596371026073059363e-02
9.520000000000000000e+02	1.537895404461565307e-01
9.530000000000000000e+02	3.021945486214596688e-01
9.540000000000000000e+02	5.763491383354775177e-01
9.550000000000000000e+02	1.066900372333646763e+00
9.560000000000000000e+02	1.916908049808961678e+00
9.570000000000000000e+02	3.342857713951832732e+00
9.580000000000000000e+02	5.658140116681055432e+00
9.590000000000000000e+02	9.295413212695486038e+00
9.600000000000000000e+02	1.482186655121564200e+01
9.610000000000000000e+02	2.293909569390429226e+01
9.620000000000000000e+02	3.445790612126532437e+01
9.630000000000000000e+02	5.023896338908625125e+01
9.640000000000000000e+02	7.109378754813994306e+01
9.650000000000000000e+02	9.764765772143859124e+01
9.660000000000000000e+02	1.301760845206616182e+02
9.670000000000000000e+02	1.684378831496861437e+02
9.680000000000000000e+02	2.115375845146484437e+02
9.690000000000000000e+02	2.578543742195667505e+02
9.700000000000000000e+02	3.050708143078632020e+02
9.710000000000000000e+02	3.503208737870616574e+02
9.720000000000000000e+02	3.904546196475660054e+02
9.730000000000000000e+02	4.223906650647236347e+02
9.740000000000000000e+02	4.435037064650310867e+02
9.750000000000000000e+02	4.519801809931470871e+02
9.760000000000000000e+02	4.470753505483345407e+02
9.770000000000000000e+02	4.292212902781280945e+02
9.780000000000000000e+02	3.999640724408640153e+02
9.790000000000000000e+02	3.617428065345827122e+02
9.800000000000000000e+02	3.175543173438157396e+02
9.810000000000000000e+02	2.705673172543889677e+02
9.820000000000000000e+02	2.237545345700473831e+02
9.830000000000000000e+02	1.796005040899293874e+02
9.840000000000000000e+02	1.399208559174492166e+02
9.850000000000000000e+02	1.058026513396514190e+02
9.860000000000000000e+02	7.765149916034745559e+01
9.870000000000000000e+02	5.531492584685462077e+01
9.880000000000000000e+02	3.824494320225031885e+01
9.890000000000000000e+02	2.566521472119194058e+01
9.900000000000000000e+02	1.671687056140027039e+01
9.910000000000000000e+02	1.056827859602914721e+01
9.920000000000000000e+02	6.484742314182933676e+00
9.930000000000000000e+02	3.862072202222052386e+00
9.940000000000000000e+02	2.232478321537085364e+00
9.950000000000000000e+02	1.252544914393882269e+00
9.960000000000000000e+02	6.820850984076283208e-01
9.970000000000000000e+02	3.605147276615114915e-01
9.980000000000000000e+02	1.849467298253468783e-01
9.990000000000000000e+02	9.208936920953628147e-02
1.000000000000000000e+03	4.450527979118946986e-02
