4.410000000000000000e+02	4.733055549844341847e+00
4.420000000000000000e+02	5.030959790616972072e+00
4.430000000000000000e+02	5.346253436973610995e+00
4.440000000000000000e+02	5.679860771701868316e+00
4.450000000000000000e+02	6.032749458430510359e+00
4.460000000000000000e+02	6.405932232867876053e+00
4.470000000000000000e+02	6.800468640214968552e+00
4.480000000000000000e+02	7.217466818887266378e+00
4.490000000000000000e+02	7.658085330602564689e+00
4.500000000000000000e+02	8.123535036810759280e+00
4.510000000000000000e+02	8.615081021354743740e+00
4.520000000000000000e+02	9.134044559160148680e+00
4.530000000000000000e+02	9.681805130654613123e+00
4.540000000000000000e+02	1.025980248151561725e+01
4.550000000000000000e+02	1.086953872723817227e+01
4.560000000000000000e+02	1.151258050190102544e+01
4.570000000000000000e+02	1.219056115039192711e+01
4.580000000000000000e+02	1.290518296322852265e+01
4.590000000000000000e+02	1.365821945298243278e+01
4.600000000000000000e+02	1.445151767117885200e+01
4.610000000000000000e+02	1.528700056440407096e+01
4.620000000000000000e+02	1.616666936820683986e+01
4.630000000000000000e+02	1.709260603722820449e+01
4.640000000000000000e+02	1.806697570983743262e+01
4.650000000000000000e+02	1.909202920538860582e+01
4.660000000000000000e+02	2.017010555204529254e+01
4.670000000000000000e+02	2.130363454294661807e+01
4.680000000000000000e+02	2.249513931831015157e+01
4.690000000000000000e+02	2.374723897088301428e+01
4.700000000000000000e+02	2.506265117196441850e+01
4.710000000000000000e+02	2.644419481502934843e+01
4.720000000000000000e+02	2.789479267378494853e+01
4.730000000000000000e+02	2.941747407128951153e+01
4.740000000000000000e+02	3.101537755655682105e+01
4.750000000000000000e+02	3.269175358485869509e+01
4.760000000000000000e+02	3.444996719772521487e+01
4.770000000000000000e+02	3.629350069843028592e+01
4.780000000000000000e+02	3.822595631857203813e+01
4.790000000000000000e+02	4.025105887143078576e+01
4.800000000000000000e+02	4.237265838951370966e+01
4.810000000000000000e+02	4.459473275541805748e+01
4.820000000000000000e+02	4.692139040298430785e+01
4.830000000000000000e+02	4.935687352566643682e+01
4.840000000000000000e+02	5.190556399746402860e+01
4.850000000000000000e+02	5.457200225961473450e+01
4.860000000000000000e+02	5.736096330807377797e+01
4.870000000000000000e+02	6.027776562268452665e+01
4.880000000000000000e+02	6.332946042309125545e+01
4.890000000000000000e+02	6.652909869406133225e+01
4.900000000000000000e+02	6.990993235329069933e+01
4.910000000000000000e+02	7.356913803747907821e+01
4.920000000000000000e+02	7.779203677096613490e+01
4.930000000000000000e+02	8.337672260008400826e+01
4.940000000000000000e+02	9.241125150026081769e+01
4.950000000000000000e+02	1.099685705665801834e+02
4.960000000000000000e+02	1.474460121404080155e+02
4.970000000000000000e+02	2.284335895554345939e+02
4.980000000000000000e+02	3.977076637727884076e+02
4.990000000000000000e+02	7.327175733878325445e+02
5.000000000000000000e+02	1.354382152134062835e+03
5.010000000000000000e+02	2.430443441923446244e+03
5.020000000000000000e+02	4.161651073365473167e+03
5.030000000000000000e+02	6.741650322978390250e+03
5.040000000000000000e+02	1.028868059317114057e+04
5.050000000000000000e+02	1.476153388669728702e+04
5.060000000000000000e+02	1.988894599575559187e+04
5.070000000000000000e+02	2.515086640656245800e+04
5.080000000000000000e+02	2.984166302577616443e+04
5.090000000000000000e+02	3.321649233178234135e+04
5.100000000000000000e+02	3.468295950419073051e+04
5.110000000000000000e+02	3.397116120396626502e+04
5.120000000000000000e+02	3.121519697625422486e+04
5.130000000000000000e+02	2.691238775107133188e+04
5.140000000000000000e+02	2.177721065683982306e+04
5.150000000000000000e+02	1.654879309003443996e+04
5.160000000000000000e+02	1.182277522401902934e+04
5.170000000000000000e+02	7.957680836142249063e+03
5.180000000000000000e+02	5.067765961106597388e+03
5.190000000000000000e+02	3.080130607026667349e+03
5.200000000000000000e+02	1.818167621226118627e+03
5.210000000000000000e+02	1.077562924199869030e+03
5.220000000000000000e+02	6.764941008797359245e+02
5.230000000000000000e+02	4.776723381543814071e+02
5.240000000000000000e+02	3.897224136057886312e+02
5.250000000000000000e+02	3.579987583616532447e+02
5.260000000000000000e+02	3.528088024479333171e+02
5.270000000000000000e+02	3.593898972673177354e+02
5.280000000000000000e+02	3.709952090419087085e+02
5.290000000000000000e+02	3.847827695045278915e+02
5.300000000000000000e+02	3.996490503822518008e+02
5.310000000000000000e+02	4.152013761718989713e+02
5.320000000000000000e+02	4.313150223493680642e+02
5.330000000000000000e+02	4.479586354688174197e+02
5.340000000000000000e+02	4.651310103109506713e+02
5.350000000000000000e+02	4.828399801595908798e+02
5.360000000000000000e+02	5.010958974577306435e+02
5.370000000000000000e+02	5.199097633514195422e+02
5.380000000000000000e+02	5.392927234087941315e+02
5.390000000000000000e+02	5.592559343207104803e+02
5.400000000000000000e+02	5.798105236821651260e+02
5.410000000000000000e+02	6.009675711952261281e+02
5.420000000000000000e+02	6.227380941982274862e+02
5.430000000000000000e+02	6.451330337449085164e+02
5.440000000000000000e+02	6.681632404636964111e+02
5.450000000000000000e+02	6.918394600565171686e+02
5.460000000000000000e+02	7.161723184193044744e+02
5.470000000000000000e+02	7.411723063893056178e+02
5.480000000000000000e+02	7.668497641289629883e+02
5.490000000000000000e+02	7.932148651577509781e+02
5.500000000000000000e+02	8.202776000444781630e+02
5.510000000000000000e+02	8.480477597736098687e+02
5.520000000000000000e+02	8.765349188002447818e+02
5.530000000000000000e+02	9.057484178094314302e+02
5.540000000000000000e+02	9.356973461965874321e+02
5.550000000000000000e+02	9.663905242868470395e+02
5.560000000000000000e+02	9.978364853122344584e+02
5.570000000000000000e+02	1.030043457166636699e+03
5.580000000000000000e+02	1.063019343959586649e+03
5.590000000000000000e+02	1.096771707390941174e+03
5.600000000000000000e+02	1.131307747969564616e+03
5.610000000000000000e+02	1.166634286100158988e+03
5.620000000000000000e+02	1.202757743063387352e+03
5.630000000000000000e+02	1.239684121915426886e+03
5.640000000000000000e+02	1.277418988334052528e+03
5.650000000000000000e+02	1.315967451439292972e+03
5.660000000000000000e+02	1.355334144617608672e+03
5.670000000000000000e+02	1.395523206379419435e+03
5.680000000000000000e+02	1.436538261280658844e+03
5.690000000000000000e+02	1.478382400939830404e+03
5.700000000000000000e+02	1.521058165182811081e+03
5.710000000000000000e+02	1.564567523348366421e+03
5.720000000000000000e+02	1.608911855788011280e+03
5.730000000000000000e+02	1.654091935594488859e+03
5.740000000000000000e+02	1.700107910593688302e+03
5.750000000000000000e+02	1.746959285635360175e+03
5.760000000000000000e+02	1.794644905218434133e+03
5.770000000000000000e+02	1.843162936487141224e+03
5.780000000000000000e+02	1.892510852634473849e+03
5.790000000000000000e+02	1.942685416749795650e+03
5.800000000000000000e+02	1.993682666147586588e+03
5.810000000000000000e+02	2.045497897214467685e+03
5.820000000000000000e+02	2.098125650811666674e+03
5.830000000000000000e+02	2.151559698270102217e+03
5.840000000000000000e+02	2.205793028015132677e+03
5.850000000000000000e+02	2.260817832857858775e+03
5.860000000000000000e+02	2.316625497989601172e+03
5.870000000000000000e+02	2.373206589715838163e+03
5.880000000000000000e+02	2.430550844965458964e+03
5.890000000000000000e+02	2.488647161610689636e+03
5.900000000000000000e+02	2.547483589632441181e+03
5.910000000000000000e+02	2.607047323165164016e+03
5.920000000000000000e+02	2.667324693454511362e+03
5.930000000000000000e+02	2.728301162760280931e+03
5.940000000000000000e+02	2.789961319236138024e+03
5.950000000000000000e+02	2.852288872816616731e+03
5.960000000000000000e+02	2.915266652140778206e+03
5.970000000000000000e+02	2.978876602540688509e+03
5.980000000000000000e+02	3.043099785121622517e+03
5.990000000000000000e+02	3.107916376959504760e+03
6.000000000000000000e+02	3.173305672439659702e+03
6.010000000000000000e+02	3.239246085759411471e+03
6.020000000000000000e+02	3.305715154615450956e+03
6.030000000000000000e+02	3.372689545095213816e+03
6.040000000000000000e+02	3.440145057789730799e+03
6.050000000000000000e+02	3.508056635143590029e+03
6.060000000000000000e+02	3.576398370055729174e+03
6.070000000000000000e+02	3.645143515742815907e+03
6.080000000000000000e+02	3.714264496874924134e+03
6.090000000000000000e+02	3.783732921991123476e+03
6.100000000000000000e+02	3.853519597200446242e+03
6.110000000000000000e+02	3.923594541171472429e+03
6.120000000000000000e+02	3.993927001411555011e+03
6.130000000000000000e+02	4.064485471834350392e+03
6.140000000000000000e+02	4.135237711612048770e+03
6.150000000000000000e+02	4.206150765306253561e+03
6.160000000000000000e+02	4.277190984269114779e+03
6.170000000000000000e+02	4.348324049303859283e+03
6.180000000000000000e+02	4.419514994571395619e+03
6.190000000000000000e+02	4.490728232727258728e+03
6.200000000000000000e+02	4.561927581270639166e+03
6.210000000000000000e+02	4.633076290084771244e+03
6.220000000000000000e+02	4.704137070145498910e+03
6.230000000000000000e+02	4.775072123372355236e+03
6.240000000000000000e+02	4.845843173594033033e+03
6.250000000000000000e+02	4.916411498597699392e+03
6.260000000000000000e+02	4.986737963229197703e+03
6.270000000000000000e+02	5.056783053508779631e+03
6.280000000000000000e+02	5.126506911724713973e+03
6.290000000000000000e+02	5.195869372464761000e+03
6.300000000000000000e+02	5.264829999543312624e+03
6.310000000000000000e+02	5.333348123779751404e+03
6.320000000000000000e+02	5.401382881581495894e+03
6.330000000000000000e+02	5.468893254283085298e+03
6.340000000000000000e+02	5.535838108190710955e+03
6.350000000000000000e+02	5.602176235279634966e+03
6.360000000000000000e+02	5.667866394490158200e+03
6.370000000000000000e+02	5.732867353565991834e+03
6.380000000000000000e+02	5.797137931377300447e+03
6.390000000000000000e+02	5.860637040669073031e+03
6.400000000000000000e+02	5.923323731174071327e+03
6.410000000000000000e+02	5.985157233028242445e+03
6.420000000000000000e+02	6.046097000425250371e+03
6.430000000000000000e+02	6.106102755445682305e+03
6.440000000000000000e+02	6.165134531995475299e+03
6.450000000000000000e+02	6.223152719787255592e+03
6.460000000000000000e+02	6.280118108297521758e+03
6.470000000000000000e+02	6.335991930631996183e+03
6.480000000000000000e+02	6.390735907231007332e+03
6.490000000000000000e+02	6.444312289346371472e+03
6.500000000000000000e+02	6.496683902221098833e+03
6.510000000000000000e+02	6.547814187903107268e+03
6.520000000000000000e+02	6.597667247624262927e+03
6.530000000000000000e+02	6.646207883676221172e+03
6.540000000000000000e+02	6.693401640714935638e+03
6.550000000000000000e+02	6.739214846426172699e+03
6.560000000000000000e+02	6.783614651485007926e+03
6.570000000000000000e+02	6.826569068743069693e+03
6.580000000000000000e+02	6.868047011578209094e+03
6.590000000000000000e+02	6.908018331342321289e+03
6.600000000000000000e+02	6.946453853844253899e+03
6.610000000000000000e+02	6.983325414806077788e+03
6.620000000000000000e+02	7.018605894232429819e+03
6.630000000000000000e+02	7.052269249634286098e+03
6.640000000000000000e+02	7.084290548050187681e+03
6.650000000000000000e+02	7.114645996809870667e+03
6.660000000000000000e+02	7.143312972987144349e+03
6.670000000000000000e+02	7.170270051491024788e+03
6.680000000000000000e+02	7.195497031746291213e+03
6.690000000000000000e+02	7.218974962916963705e+03
6.700000000000000000e+02	7.240686167628627118e+03
6.710000000000000000e+02	7.260614264148020993e+03
6.720000000000000000e+02	7.278744186980964514e+03
6.730000000000000000e+02	7.295062205852337684e+03
6.740000000000000000e+02	7.309555943034662050e+03
6.750000000000000000e+02	7.322214388994669207e+03
6.760000000000000000e+02	7.333027916330152038e+03
6.770000000000000000e+02	7.341988291972422303e+03
6.780000000000000000e+02	7.349088687632714027e+03
6.790000000000000000e+02	7.354323688473969014e+03
6.800000000000000000e+02	7.357689299992610358e+03
6.810000000000000000e+02	7.359182953098031248e+03
6.820000000000000000e+02	7.358803507380790506e+03
6.830000000000000000e+02	7.356551252563661365e+03
6.840000000000000000e+02	7.352427908132969606e+03
6.850000000000000000e+02	7.346436621150874998e+03
6.860000000000000000e+02	7.338581962252489575e+03
6.870000000000000000e+02	7.328869919834955908e+03
6.880000000000000000e+02	7.317307892448839084e+03
6.890000000000000000e+02	7.303904679405348361e+03
6.900000000000000000e+02	7.288670469616105038e+03
6.910000000000000000e+02	7.271616828685244400e+03
6.920000000000000000e+02	7.252756684276763735e+03
6.930000000000000000e+02	7.232104309783023382e+03
6.940000000000000000e+02	7.209675306323279983e+03
6.950000000000000000e+02	7.185486583104040619e+03
6.960000000000000000e+02	7.159556336175838624e+03
6.970000000000000000e+02	7.131904025623791313e+03
6.980000000000000000e+02	7.102550351231968307e+03
6.990000000000000000e+02	7.071517226664154805e+03
7.000000000000000000e+02	7.038827752206091645e+03
7.010000000000000000e+02	7.004506186116658682e+03
7.020000000000000000e+02	6.968577914637698086e+03
7.030000000000000000e+02	6.931069420714384250e+03
7.040000000000000000e+02	6.892008251480064246e+03
7.050000000000000000e+02	6.851422984561425437e+03
7.060000000000000000e+02	6.809343193261634951e+03
7.070000000000000000e+02	6.765799410680811889e+03
7.080000000000000000e+02	6.720823092834678391e+03
7.090000000000000000e+02	6.674446580833707230e+03
7.100000000000000000e+02	6.626703062186323223e+03
7.110000000000000000e+02	6.577626531290866296e+03
7.120000000000000000e+02	6.527251749182040840e+03
7.130000000000000000e+02	6.475614202598410884e+03
7.140000000000000000e+02	6.422750062438243731e+03
7.150000000000000000e+02	6.368696141671575788e+03
7.160000000000000000e+02	6.313489852776800944e+03
7.170000000000000000e+02	6.257169164770400130e+03
7.180000000000000000e+02	6.199772559898548025e+03
7.190000000000000000e+02	6.141338990059392927e+03
7.200000000000000000e+02	6.081907833024628417e+03
7.210000000000000000e+02	6.021518848528747185e+03
7.220000000000000000e+02	5.960212134293949021e+03
7.230000000000000000e+02	5.898028082058146538e+03
7.240000000000000000e+02	5.835007333672841924e+03
7.250000000000000000e+02	5.771190737336851271e+03
7.260000000000000000e+02	5.706619304030940839e+03
7.270000000000000000e+02	5.641334164217388206e+03
7.280000000000000000e+02	5.575376524867324406e+03
7.290000000000000000e+02	5.508787626877426192e+03
7.300000000000000000e+02	5.441608702936169720e+03
7.310000000000000000e+02	5.373880935898335338e+03
7.320000000000000000e+02	5.305645417724856998e+03
7.330000000000000000e+02	5.236943109043460936e+03
7.340000000000000000e+02	5.167814799383705576e+03
7.350000000000000000e+02	5.098301068138205665e+03
7.360000000000000000e+02	5.028442246299836370e+03
7.370000000000000000e+02	4.958278379022743138e+03
7.380000000000000000e+02	4.887849189052827569e+03
7.390000000000000000e+02	4.817194041071267748e+03
7.400000000000000000e+02	4.746351906992386830e+03
7.410000000000000000e+02	4.675361332254926310e+03
7.420000000000000000e+02	4.604260403143473013e+03
7.430000000000000000e+02	4.533086715174394158e+03
7.440000000000000000e+02	4.461877342578301068e+03
7.450000000000000000e+02	4.390668808908582832e+03
7.460000000000000000e+02	4.319497058803145592e+03
7.470000000000000000e+02	4.248397430924026594e+03
7.480000000000000000e+02	4.177404632097057402e+03
7.490000000000000000e+02	4.106552712671308655e+03
7.500000000000000000e+02	4.035875043115535846e+03
7.510000000000000000e+02	3.965404291866417225e+03
7.520000000000000000e+02	3.895172404440852461e+03
7.530000000000000000e+02	3.825210583822230547e+03
7.540000000000000000e+02	3.755549272128077064e+03
7.550000000000000000e+02	3.686218133564140771e+03
7.560000000000000000e+02	3.617246038667621178e+03
7.570000000000000000e+02	3.548661049839878615e+03
7.580000000000000000e+02	3.480490408166734596e+03
7.590000000000000000e+02	3.412760521522191993e+03
7.600000000000000000e+02	3.345496953949234467e+03
7.610000000000000000e+02	3.278724416309249591e+03
7.620000000000000000e+02	3.212466758189507345e+03
7.630000000000000000e+02	3.146746961056152941e+03
7.640000000000000000e+02	3.081587132638198455e+03
7.650000000000000000e+02	3.017008502526127359e+03
7.660000000000000000e+02	2.953031418966931142e+03
7.670000000000000000e+02	2.889675346835626442e+03
7.680000000000000000e+02	2.826958866761688114e+03
7.690000000000000000e+02	2.764899675387217030e+03
7.700000000000000000e+02	2.703514586732180760e+03
7.710000000000000000e+02	2.642819534640637357e+03
7.720000000000000000e+02	2.582829576280522360e+03
7.730000000000000000e+02	2.523558896668328998e+03
7.740000000000000000e+02	2.465020814188839267e+03
7.750000000000000000e+02	2.407227787078997608e+03
7.760000000000000000e+02	2.350191420844011645e+03
7.770000000000000000e+02	2.293922476572869073e+03
7.780000000000000000e+02	2.238430880119640278e+03
7.790000000000000000e+02	2.183725732116206473e+03
7.800000000000000000e+02	2.129815318781394126e+03
7.810000000000000000e+02	2.076707123490965387e+03
7.820000000000000000e+02	2.024407839072405523e+03
7.830000000000000000e+02	1.972923380788092118e+03
7.840000000000000000e+02	1.922258899970096991e+03
7.850000000000000000e+02	1.872418798269661920e+03
7.860000000000000000e+02	1.823406742484237611e+03
7.870000000000000000e+02	1.775225679924909400e+03
7.880000000000000000e+02	1.727877854287039099e+03
7.890000000000000000e+02	1.681364821987045843e+03
7.900000000000000000e+02	1.635687468928386579e+03
7.910000000000000000e+02	1.590846027660046502e+03
7.920000000000000000e+02	1.546840094891118497e+03
7.930000000000000000e+02	1.503668649325428760e+03
7.940000000000000000e+02	1.461330069780577105e+03
7.950000000000000000e+02	1.419822153556246576e+03
7.960000000000000000e+02	1.379142135017168812e+03
7.970000000000000000e+02	1.339286704356737800e+03
7.980000000000000000e+02	1.300252026507888786e+03
7.990000000000000000e+02	1.262033760168580329e+03
8.000000000000000000e+02	1.224627076909924426e+03
8.010000000000000000e+02	1.188026680335818810e+03
8.020000000000000000e+02	1.152226825263744104e+03
8.030000000000000000e+02	1.117221336897242054e+03
8.040000000000000000e+02	1.083003629961496472e+03
8.050000000000000000e+02	1.049566727774351648e+03
8.060000000000000000e+02	1.016903281226052400e+03
8.070000000000000000e+02	9.850055876419709193e+02
8.080000000000000000e+02	9.538656095035746603e+02
8.090000000000000000e+02	9.234749930039174615e+02
8.100000000000000000e+02	8.938250864149473500e+02
8.110000000000000000e+02	8.649069582449897098e+02
8.120000000000000000e+02	8.367114151658062156e+02
8.130000000000000000e+02	8.092290196896976795e+02
8.140000000000000000e+02	7.824501075781830650e+02
8.150000000000000000e+02	7.563648049648627421e+02
8.160000000000000000e+02	7.309630451761361201e+02
8.170000000000000000e+02	7.062345852345179082e+02
8.180000000000000000e+02	6.821690220303559045e+02
8.190000000000000000e+02	6.587558081488120933e+02
8.200000000000000000e+02	6.359842673400089552e+02
8.210000000000000000e+02	6.138436096212903976e+02
8.220000000000000000e+02	5.923229460015538734e+02
8.230000000000000000e+02	5.714113028186275187e+02
8.240000000000000000e+02	5.510976356816560155e+02
8.250000000000000000e+02	5.313708430114241992e+02
8.260000000000000000e+02	5.122197791725091065e+02
8.270000000000000000e+02	4.936332671920719690e+02
8.280000000000000000e+02	4.756001110610172304e+02
8.290000000000000000e+02	4.581091076141270264e+02
8.300000000000000000e+02	4.411490579866373309e+02
8.310000000000000000e+02	4.247087786455541618e+02
8.320000000000000000e+02	4.087771119948213823e+02
8.330000000000000000e+02	3.933429365542177152e+02
8.340000000000000000e+02	3.783951767126190475e+02
8.350000000000000000e+02	3.639228120569818543e+02
8.360000000000000000e+02	3.499148862790863745e+02
8.370000000000000000e+02	3.363605156627502879e+02
8.380000000000000000e+02	3.232488971548410177e+02
8.390000000000000000e+02	3.105693160240261363e+02
8.400000000000000000e+02	2.983111531117578465e+02
8.410000000000000000e+02	2.864638916805355393e+02
8.420000000000000000e+02	2.750171238649870702e+02
8.430000000000000000e+02	2.639605567317930195e+02
8.440000000000000000e+02	2.532840179549164645e+02
8.450000000000000000e+02	2.429774611130176538e+02
8.460000000000000000e+02	2.330309706163177452e+02
8.470000000000000000e+02	2.234347662705256141e+02
8.480000000000000000e+02	2.141792074857715420e+02
8.490000000000000000e+02	2.052547971387812993e+02
8.500000000000000000e+02	1.966521850967958187e+02
8.510000000000000000e+02	1.883621714119759929e+02
8.520000000000000000e+02	1.803757091952482483e+02
8.530000000000000000e+02	1.726839071787274236e+02
8.540000000000000000e+02	1.652780319760152565e+02
8.550000000000000000e+02	1.581495100498042632e+02
8.560000000000000000e+02	1.512899293963280059e+02
8.570000000000000000e+02	1.446910409562834445e+02
8.580000000000000000e+02	1.383447597619128828e+02
8.590000000000000000e+02	1.322431658299758794e+02
8.600000000000000000e+02	1.263785048103589617e+02
8.610000000000000000e+02	1.207431884000723983e+02
8.620000000000000000e+02	1.153297945323601823e+02
8.630000000000000000e+02	1.101310673506156377e+02
8.640000000000000000e+02	1.051399169767329482e+02
8.650000000000000000e+02	1.003494190834585567e+02
8.660000000000000000e+02	9.575281428021152408e+01
8.670000000000000000e+02	9.134350732174465293e+01
8.680000000000000000e+02	8.711506614889508171e+01
8.690000000000000000e+02	8.306122077054824615e+01
8.700000000000000000e+02	7.917586199579095307e+01
8.710000000000000000e+02	7.545304002508117946e+01
8.720000000000000000e+02	7.188696290909223308e+01
8.730000000000000000e+02	6.847199488372061182e+01
8.740000000000000000e+02	6.520265458955921645e+01
8.750000000000000000e+02	6.207361318395116712e+01
8.760000000000000000e+02	5.907969235353967008e+01
8.770000000000000000e+02	5.621586223502512070e+01
8.780000000000000000e+02	5.347723925163347047e+01
8.790000000000000000e+02	5.085908387258206886e+01
8.800000000000000000e+02	4.835679830261413059e+01
8.810000000000000000e+02	4.596592410844842647e+01
8.820000000000000000e+02	4.368213978876686809e+01
8.830000000000000000e+02	4.150125829413658352e+01
8.840000000000000000e+02	3.941922450303339787e+01
8.850000000000000000e+02	3.743211265990453285e+01
8.860000000000000000e+02	3.553612378097940905e+01
8.870000000000000000e+02	3.372758303330673613e+01
8.880000000000000000e+02	3.200293709226733085e+01
8.890000000000000000e+02	3.035875148258497092e+01
8.900000000000000000e+02	2.879170790763024002e+01
8.910000000000000000e+02	2.729860157158886125e+01
8.920000000000000000e+02	2.587633849884350212e+01
8.930000000000000000e+02	2.452193285469958894e+01
8.940000000000000000e+02	2.323250427136910190e+01
8.950000000000000000e+02	2.200527518291415063e+01
8.960000000000000000e+02	2.083756817264288941e+01
8.970000000000000000e+02	1.972680333624618143e+01
8.980000000000000000e+02	1.867049566376221748e+01
8.990000000000000000e+02	1.766625244326053590e+01
9.000000000000000000e+02	1.671177068894550644e+01
9.010000000000000000e+02	1.580483459619250475e+01
9.020000000000000000e+02	1.494331302584892995e+01
9.030000000000000000e+02	1.412515701995532069e+01
9.040000000000000000e+02	1.334839735087102852e+01
9.050000000000000000e+02	1.261114210562296201e+01
9.060000000000000000e+02	1.191157430713563770e+01
9.070000000000000000e+02	1.124794957384593452e+01
9.080000000000000000e+02	1.061859381905646593e+01
9.090000000000000000e+02	1.002190099123808587e+01
9.100000000000000000e+02	9.456330856353490688e+00
9.110000000000000000e+02	8.920406823141536989e+00
9.120000000000000000e+02	8.412713812174775541e+00
9.130000000000000000e+02	7.931896169381205119e+00
9.140000000000000000e+02	7.476655624605213823e+00
9.150000000000000000e+02	7.045749295672167456e+00
9.160000000000000000e+02	6.637987738315809239e+00
9.170000000000000000e+02	6.252233042227807402e+00
9.180000000000000000e+02	5.887396973394054989e+00
9.190000000000000000e+02	5.542439162792824447e+00
9.200000000000000000e+02	5.216365341445293957e+00
9.210000000000000000e+02	4.908225621729451760e+00
9.220000000000000000e+02	4.617112824793559334e+00
9.230000000000000000e+02	4.342160853835303591e+00
9.240000000000000000e+02	4.082543112947303321e+00
9.250000000000000000e+02	3.837470971168588374e+00
9.260000000000000000e+02	3.606192271324999865e+00
9.270000000000000000e+02	3.387989883188931017e+00
9.280000000000000000e+02	3.182180300440453191e+00
9.290000000000000000e+02	2.988112280867314841e+00
9.300000000000000000e+02	2.805165529200633223e+00
9.310000000000000000e+02	2.632749421946030122e+00
9.320000000000000000e+02	2.470301773536402568e+00
9.330000000000000000e+02	2.317287643102417416e+00
9.340000000000000000e+02	2.173198181129784246e+00
9.350000000000000000e+02	2.037549515248635590e+00
9.360000000000000000e+02	1.909881674379373617e+00
9.370000000000000000e+02	1.789757550441374523e+00
9.380000000000000000e+02	1.676761896815516906e+00
9.390000000000000000e+02	1.570500362738673994e+00
9.400000000000000000e+02	1.470598562798008491e+00
9.410000000000000000e+02	1.376701180684724690e+00
9.420000000000000000e+02	1.288471106361009033e+00
9.430000000000000000e+02	1.205588605790099743e+00
9.440000000000000000e+02	1.127750522377308329e+00
9.450000000000000000e+02	1.054669509269823058e+00
9.460000000000000000e+02	9.860732916644866508e-01
9.470000000000000000e+02	9.217039582760264693e-01
9.480000000000000000e+02	8.613172811225950909e-01
9.490000000000000000e+02	8.046820627916035917e-01
9.500000000000000000e+02	7.515795103558787771e-01
9.510000000000000000e+02	7.018026351186577028e-01
9.520000000000000000e+02	6.551556773752663654e-01
9.530000000000000000e+02	6.114535553898238218e-01
9.540000000000000000e+02	5.705213377965562271e-01
9.550000000000000000e+02	5.321937386474467901e-01
9.560000000000000000e+02	4.963146343407573435e-01
9.570000000000000000e+02	4.627366016784767999e-01
9.580000000000000000e+02	4.313204763147659437e-01
9.590000000000000000e+02	4.019349308720808756e-01
9.600000000000000000e+02	3.744560720166325019e-01
9.610000000000000000e+02	3.487670558002444743e-01
9.620000000000000000e+02	3.247577205913549925e-01
9.630000000000000000e+02	3.023242369339038671e-01
9.640000000000000000e+02	2.813687736889747826e-01
9.650000000000000000e+02	2.617991798304463158e-01
9.660000000000000000e+02	2.435286812822908820e-01
9.670000000000000000e+02	2.264755922017239187e-01
9.680000000000000000e+02	2.105630401288983988e-01
9.690000000000000000e+02	1.957187044403944365e-01
9.700000000000000000e+02	1.818745675602091438e-01
9.710000000000000000e+02	1.689666783983594656e-01
9.720000000000000000e+02	1.569349275034839786e-01
9.730000000000000000e+02	1.457228334319857488e-01
9.740000000000000000e+02	1.352773398522246484e-01
9.750000000000000000e+02	1.255486229180669266e-01
9.760000000000000000e+02	1.164899084616706215e-01
9.770000000000000000e+02	1.080572985707450168e-01
9.780000000000000000e+02	1.002096071306152053e-01
9.790000000000000000e+02	9.290820392626943092e-02
9.800000000000000000e+02	8.611686691412470673e-02
9.810000000000000000e+02	7.980164228752675837e-02
9.820000000000000000e+02	7.393071197396917926e-02
9.830000000000000000e+02	6.847426821568886046e-02
9.840000000000000000e+02	6.340439489863967937e-02
9.850000000000000000e+02	5.869495530788432225e-02
9.860000000000000000e+02	5.432148600013256279e-02
9.870000000000000000e+02	5.026109649653764944e-02
9.880000000000000000e+02	4.649237451088686357e-02
9.890000000000000000e+02	4.299529644003260986e-02
9.900000000000000000e+02	3.975114285476432502e-02
9.910000000000000000e+02	3.674241874035719113e-02
9.920000000000000000e+02	3.395277824671909944e-02
9.930000000000000000e+02	3.136695371841835556e-02
9.940000000000000000e+02	2.897068878489743315e-02
9.950000000000000000e+02	2.675067530087972545e-02
9.960000000000000000e+02	2.469449393634268880e-02
9.970000000000000000e+02	2.279055822448726107e-02
9.980000000000000000e+02	2.102806188486446015e-02
9.990000000000000000e+02	1.939692924724491577e-02
1.000000000000000000e+03	1.788776860993367829e-02
