4.410000000000000000e+02	8.946843355810786491e+00
4.420000000000000000e+02	9.512556126253963740e+00
4.430000000000000000e+02	1.011120924184139191e+01
4.440000000000000000e+02	1.074453018639245627e+01
4.450000000000000000e+02	1.141432489087825708e+01
4.460000000000000000e+02	1.212248056281624287e+01
4.470000000000000000e+02	1.287096857523493476e+01
4.480000000000000000e+02	1.366184741392231672e+01
4.490000000000000000e+02	1.449726568147511152e+01
4.500000000000000000e+02	1.537946515645832335e+01
4.510000000000000000e+02	1.631078390577034298e+01
4.520000000000000000e+02	1.729365944808415279e+01
4.530000000000000000e+02	1.833063196600239664e+01
4.540000000000000000e+02	1.942434756432250609e+01
4.550000000000000000e+02	2.057756157155775867e+01
4.560000000000000000e+02	2.179314188160153876e+01
4.570000000000000000e+02	2.307407233215467457e+01
4.580000000000000000e+02	2.442345611626071999e+01
4.590000000000000000e+02	2.584451922301085958e+01
4.600000000000000000e+02	2.734061390318930052e+01
4.610000000000000000e+02	2.891522215533167994e+01
4.620000000000000000e+02	3.057195922736413252e+01
4.630000000000000000e+02	3.231457712867840115e+01
4.640000000000000000e+02	3.414696814718131890e+01
4.650000000000000000e+02	3.607316836553172834e+01
4.660000000000000000e+02	3.809736117045062542e+01
4.670000000000000000e+02	4.022388074865521901e+01
4.680000000000000000e+02	4.245721556263086427e+01
4.690000000000000000e+02	4.480201179911313147e+01
4.700000000000000000e+02	4.726307678280877411e+01
4.710000000000000000e+02	4.984538234753751595e+01
4.720000000000000000e+02	5.255406815663103970e+01
4.730000000000000000e+02	5.539444496407607232e+01
4.740000000000000000e+02	5.837199780754328060e+01
4.750000000000000000e+02	6.149238912409656876e+01
4.760000000000000000e+02	6.476146177903520140e+01
4.770000000000000000e+02	6.818524199798510210e+01
4.780000000000000000e+02	7.176994219204947001e+01
4.790000000000000000e+02	7.552196366571617148e+01
4.800000000000000000e+02	7.944789919838822811e+01
4.810000000000000000e+02	8.355453549962518878e+01
4.820000000000000000e+02	8.784885559444417424e+01
4.830000000000000000e+02	9.233804150630889751e+01
4.840000000000000000e+02	9.702947919609231064e+01
4.850000000000000000e+02	1.019307752368588922e+02
4.860000000000000000e+02	1.070498275800202777e+02
4.870000000000000000e+02	1.123951253504260848e+02
4.880000000000000000e+02	1.179769447749425382e+02
4.890000000000000000e+02	1.238117850450016277e+02
4.900000000000000000e+02	1.299376096223744526e+02
4.910000000000000000e+02	1.364622462797606772e+02
4.920000000000000000e+02	1.437051008003944332e+02
4.930000000000000000e+02	1.525786029422163210e+02
4.940000000000000000e+02	1.655283962500622295e+02
4.950000000000000000e+02	1.886440777407532039e+02
4.960000000000000000e+02	2.359420826943540135e+02
4.970000000000000000e+02	3.371272030771048094e+02
4.980000000000000000e+02	5.499032974863658865e+02
4.990000000000000000e+02	9.763967231675712810e+02
5.000000000000000000e+02	1.779802988439221053e+03
5.010000000000000000e+02	3.192150416011872949e+03
5.020000000000000000e+02	5.499153466446133280e+03
5.030000000000000000e+02	8.987776122964633032e+03
5.040000000000000000e+02	1.385125210700795833e+04
5.050000000000000000e+02	2.006657544741457241e+04
5.060000000000000000e+02	2.728495809502135307e+04
5.070000000000000000e+02	3.479221009283812600e+04
5.080000000000000000e+02	4.158720693488161487e+04
5.090000000000000000e+02	4.658628722434274096e+04
5.100000000000000000e+02	4.890278737569943769e+04
5.110000000000000000e+02	4.810416838679616922e+04
5.120000000000000000e+02	4.434457033343178773e+04
5.130000000000000000e+02	3.831709951513515261e+04
5.140000000000000000e+02	3.104609636705741286e+04
5.150000000000000000e+02	2.360475456994658452e+04
5.160000000000000000e+02	1.686439297773783983e+04
5.170000000000000000e+02	1.135244891962109796e+04
5.180000000000000000e+02	7.239085094659578317e+03
5.190000000000000000e+02	4.420160347519889001e+03
5.200000000000000000e+02	2.639945784035348424e+03
5.210000000000000000e+02	1.602905425290173980e+03
5.220000000000000000e+02	1.047109119420765637e+03
5.230000000000000000e+02	7.759496354079233242e+02
5.240000000000000000e+02	6.595397846730132869e+02
5.250000000000000000e+02	6.208821951986789145e+02
5.260000000000000000e+02	6.185582705383255870e+02
5.270000000000000000e+02	6.322066648147650767e+02
5.280000000000000000e+02	6.526370348054213082e+02
5.290000000000000000e+02	6.760300708424251752e+02
5.300000000000000000e+02	7.009237453738179511e+02
5.310000000000000000e+02	7.268050989034725262e+02
5.320000000000000000e+02	7.535129152594746529e+02
5.330000000000000000e+02	7.810062489073707184e+02
5.340000000000000000e+02	8.092820999344022539e+02
5.350000000000000000e+02	8.383484442432704782e+02
5.360000000000000000e+02	8.682160663081565417e+02
5.370000000000000000e+02	8.988962595660427723e+02
5.380000000000000000e+02	9.304002139033977983e+02
5.390000000000000000e+02	9.627388509638515188e+02
5.400000000000000000e+02	9.959227692465151449e+02
5.410000000000000000e+02	1.029962213953960827e+03
5.420000000000000000e+02	1.064867051831212621e+03
5.430000000000000000e+02	1.100646746764422460e+03
5.440000000000000000e+02	1.137310335320019249e+03
5.450000000000000000e+02	1.174866402099854668e+03
5.460000000000000000e+02	1.213323054919992501e+03
5.470000000000000000e+02	1.252687899845082711e+03
5.480000000000000000e+02	1.292968016115489490e+03
5.490000000000000000e+02	1.334169931006330899e+03
5.500000000000000000e+02	1.376299594659093373e+03
5.510000000000000000e+02	1.419362354927855222e+03
5.520000000000000000e+02	1.463362932283486089e+03
5.530000000000000000e+02	1.508305394820421952e+03
5.540000000000000000e+02	1.554193133411846929e+03
5.550000000000000000e+02	1.601028837060211345e+03
5.560000000000000000e+02	1.648814468491103980e+03
5.570000000000000000e+02	1.697551240039461163e+03
5.580000000000000000e+02	1.747239589878006427e+03
5.590000000000000000e+02	1.797879158638621902e+03
5.600000000000000000e+02	1.849468766478093812e+03
5.610000000000000000e+02	1.902006390640281325e+03
5.620000000000000000e+02	1.955489143567312112e+03
5.630000000000000000e+02	2.009913251612811337e+03
5.640000000000000000e+02	2.065274034410503646e+03
5.650000000000000000e+02	2.121565884951737644e+03
5.660000000000000000e+02	2.178782250425544134e+03
5.670000000000000000e+02	2.236915613874850351e+03
5.680000000000000000e+02	2.295957476722289357e+03
5.690000000000000000e+02	2.355898342218775724e+03
5.700000000000000000e+02	2.416727699867631145e+03
5.710000000000000000e+02	2.478434010876473167e+03
5.720000000000000000e+02	2.541004694688446762e+03
5.730000000000000000e+02	2.604426116643553542e+03
5.740000000000000000e+02	2.668683576819911195e+03
5.750000000000000000e+02	2.733761300103685244e+03
5.760000000000000000e+02	2.799642427535236493e+03
5.770000000000000000e+02	2.866309008977664689e+03
5.780000000000000000e+02	2.933741997152455951e+03
5.790000000000000000e+02	3.001921243085298556e+03
5.800000000000000000e+02	3.070825493003381325e+03
5.810000000000000000e+02	3.140432386723584386e+03
5.820000000000000000e+02	3.210718457568944814e+03
5.830000000000000000e+02	3.281659133848608235e+03
5.840000000000000000e+02	3.353228741934196478e+03
5.850000000000000000e+02	3.425400510963084798e+03
5.860000000000000000e+02	3.498146579196556104e+03
5.870000000000000000e+02	3.571438002058129314e+03
5.880000000000000000e+02	3.645244761874576852e+03
5.890000000000000000e+02	3.719535779339267719e+03
5.900000000000000000e+02	3.794278926714471254e+03
5.910000000000000000e+02	3.869441042786168055e+03
5.920000000000000000e+02	3.944987949581722205e+03
5.930000000000000000e+02	4.020884470857482029e+03
5.940000000000000000e+02	4.097094452360047399e+03
5.950000000000000000e+02	4.173580783861465534e+03
5.960000000000000000e+02	4.250305422965154321e+03
5.970000000000000000e+02	4.327229420675761503e+03
5.980000000000000000e+02	4.404312948722577858e+03
5.990000000000000000e+02	4.481515328622434026e+03
6.000000000000000000e+02	4.558795062464361763e+03
6.010000000000000000e+02	4.636109865394530971e+03
6.020000000000000000e+02	4.713416699776266796e+03
6.030000000000000000e+02	4.790671810996203931e+03
6.040000000000000000e+02	4.867830764883862685e+03
6.050000000000000000e+02	4.944848486708246128e+03
6.060000000000000000e+02	5.021679301711268636e+03
6.070000000000000000e+02	5.098276977134227309e+03
6.080000000000000000e+02	5.174594765689795167e+03
6.090000000000000000e+02	5.250585450428489821e+03
6.100000000000000000e+02	5.326201390944981540e+03
6.110000000000000000e+02	5.401394570866167669e+03
6.120000000000000000e+02	5.476116646559537912e+03
6.130000000000000000e+02	5.550318996997053546e+03
6.140000000000000000e+02	5.623952774706566743e+03
6.150000000000000000e+02	5.696968957739703910e+03
6.160000000000000000e+02	5.769318402582176532e+03
6.170000000000000000e+02	5.840951897929604456e+03
6.180000000000000000e+02	5.911820219249257207e+03
6.190000000000000000e+02	5.981874184045504990e+03
6.200000000000000000e+02	6.051064707744410043e+03
6.210000000000000000e+02	6.119342860110554284e+03
6.220000000000000000e+02	6.186659922107196508e+03
6.230000000000000000e+02	6.252967443108854241e+03
6.240000000000000000e+02	6.318217298373746416e+03
6.250000000000000000e+02	6.382361746681928707e+03
6.260000000000000000e+02	6.445353488043650941e+03
6.270000000000000000e+02	6.507145721381288240e+03
6.280000000000000000e+02	6.567692202087274381e+03
6.290000000000000000e+02	6.626947299359718272e+03
6.300000000000000000e+02	6.684866053216877845e+03
6.310000000000000000e+02	6.741404231091350084e+03
6.320000000000000000e+02	6.796518383904775874e+03
6.330000000000000000e+02	6.850165901523976572e+03
6.340000000000000000e+02	6.902305067499811230e+03
6.350000000000000000e+02	6.952895112990648158e+03
6.360000000000000000e+02	7.001896269773129461e+03
6.370000000000000000e+02	7.049269822243983072e+03
6.380000000000000000e+02	7.094978158317862835e+03
6.390000000000000000e+02	7.138984819127716946e+03
6.400000000000000000e+02	7.181254547435877612e+03
6.410000000000000000e+02	7.221753334665975672e+03
6.420000000000000000e+02	7.260448466467963044e+03
6.430000000000000000e+02	7.297308566730826897e+03
6.440000000000000000e+02	7.332303639960170585e+03
6.450000000000000000e+02	7.365405111940577626e+03
6.460000000000000000e+02	7.396585868605615360e+03
6.470000000000000000e+02	7.425820293041506375e+03
6.480000000000000000e+02	7.453084300553759931e+03
6.490000000000000000e+02	7.478355371729609942e+03
6.500000000000000000e+02	7.501612583432711290e+03
6.510000000000000000e+02	7.522836637670393429e+03
6.520000000000000000e+02	7.542009888277722894e+03
6.530000000000000000e+02	7.559116365366711761e+03
6.540000000000000000e+02	7.574141797493282866e+03
6.550000000000000000e+02	7.587073631498888062e+03
6.560000000000000000e+02	7.597901049988177874e+03
6.570000000000000000e+02	7.606614986408667392e+03
6.580000000000000000e+02	7.613208137702954446e+03
6.590000000000000000e+02	7.617674974508784544e+03
6.600000000000000000e+02	7.620011748887018257e+03
6.610000000000000000e+02	7.620216499562372519e+03
6.620000000000000000e+02	7.618289054666698576e+03
6.630000000000000000e+02	7.614231031979399631e+03
6.640000000000000000e+02	7.608045836664531635e+03
6.650000000000000000e+02	7.599738656509020984e+03
6.660000000000000000e+02	7.589316454671313295e+03
6.670000000000000000e+02	7.576787959954634971e+03
6.680000000000000000e+02	7.562163654623917864e+03
6.690000000000000000e+02	7.545455759790143020e+03
6.700000000000000000e+02	7.526678218390685288e+03
6.710000000000000000e+02	7.505846675798791694e+03
6.720000000000000000e+02	7.482978458099970339e+03
6.730000000000000000e+02	7.458092548077505853e+03
6.740000000000000000e+02	7.431209558953696614e+03
6.750000000000000000e+02	7.402351705937647239e+03
6.760000000000000000e+02	7.371542775634608915e+03
6.770000000000000000e+02	7.338808093375816497e+03
6.780000000000000000e+02	7.304174488531624775e+03
6.790000000000000000e+02	7.267670257874445269e+03
6.800000000000000000e+02	7.229325127061510102e+03
6.810000000000000000e+02	7.189170210310811854e+03
6.820000000000000000e+02	7.147237968346784328e+03
6.830000000000000000e+02	7.103562164695246793e+03
6.840000000000000000e+02	7.058177820409939159e+03
6.850000000000000000e+02	7.011121167315560342e+03
6.860000000000000000e+02	6.962429599854624030e+03
6.870000000000000000e+02	6.912141625627612484e+03
6.880000000000000000e+02	6.860296814717887173e+03
6.890000000000000000e+02	6.806935747894557608e+03
6.900000000000000000e+02	6.752099963788034074e+03
6.910000000000000000e+02	6.695831905134314184e+03
6.920000000000000000e+02	6.638174864185119077e+03
6.930000000000000000e+02	6.579172927381852787e+03
6.940000000000000000e+02	6.518870919392014912e+03
6.950000000000000000e+02	6.457314346607068728e+03
6.960000000000000000e+02	6.394549340200985171e+03
6.970000000000000000e+02	6.330622598848613052e+03
6.980000000000000000e+02	6.265581331202800357e+03
6.990000000000000000e+02	6.199473198228669389e+03
7.000000000000000000e+02	6.132346255492816454e+03
7.010000000000000000e+02	6.064248895504232678e+03
7.020000000000000000e+02	5.995229790202706681e+03
7.030000000000000000e+02	5.925337833689097351e+03
7.040000000000000000e+02	5.854622085290400719e+03
7.050000000000000000e+02	5.783131713050812323e+03
7.060000000000000000e+02	5.710915937738136563e+03
7.070000000000000000e+02	5.638023977452791769e+03
7.080000000000000000e+02	5.564504992924484213e+03
7.090000000000000000e+02	5.490408033579195944e+03
7.100000000000000000e+02	5.415781984456622922e+03
7.110000000000000000e+02	5.340675514055466010e+03
7.120000000000000000e+02	5.265137023181213408e+03
7.130000000000000000e+02	5.189214594868038148e+03
7.140000000000000000e+02	5.112955945443410201e+03
7.150000000000000000e+02	5.036408376800812221e+03
7.160000000000000000e+02	4.959618729942666505e+03
7.170000000000000000e+02	4.882633339852228346e+03
7.180000000000000000e+02	4.805497991749727589e+03
7.190000000000000000e+02	4.728257878784512286e+03
7.200000000000000000e+02	4.650957561211380380e+03
7.210000000000000000e+02	4.573640927095638290e+03
7.220000000000000000e+02	4.496351154587726342e+03
7.230000000000000000e+02	4.419130675804582097e+03
7.240000000000000000e+02	4.342021142351141862e+03
7.250000000000000000e+02	4.265063392511655366e+03
7.260000000000000000e+02	4.188297420136733308e+03
7.270000000000000000e+02	4.111762345248311249e+03
7.280000000000000000e+02	4.035496386380995318e+03
7.290000000000000000e+02	3.959536834674531747e+03
7.300000000000000000e+02	3.883920029728512873e+03
7.310000000000000000e+02	3.808681337226771120e+03
7.320000000000000000e+02	3.733855128335375412e+03
7.330000000000000000e+02	3.659474760874597905e+03
7.340000000000000000e+02	3.585572562261801522e+03
7.350000000000000000e+02	3.512179814218797219e+03
7.360000000000000000e+02	3.439326739233952139e+03
7.370000000000000000e+02	3.367042488766091537e+03
7.380000000000000000e+02	3.295355133174171897e+03
7.390000000000000000e+02	3.224291653353627680e+03
7.400000000000000000e+02	3.153877934057445600e+03
7.410000000000000000e+02	3.084138758877176315e+03
7.420000000000000000e+02	3.015097806856428633e+03
7.430000000000000000e+02	2.946777650706833356e+03
7.440000000000000000e+02	2.879199756593993243e+03
7.450000000000000000e+02	2.812384485458638210e+03
7.460000000000000000e+02	2.746351095836024342e+03
7.470000000000000000e+02	2.681117748134522571e+03
7.480000000000000000e+02	2.616701510332462021e+03
7.490000000000000000e+02	2.553118365050466764e+03
7.500000000000000000e+02	2.490383217954904012e+03
7.510000000000000000e+02	2.428509907446514717e+03
7.520000000000000000e+02	2.367511215586956496e+03
7.530000000000000000e+02	2.307398880214715064e+03
7.540000000000000000e+02	2.248183608200767594e+03
7.550000000000000000e+02	2.189875089793392362e+03
7.560000000000000000e+02	2.132482014000711843e+03
7.570000000000000000e+02	2.076012084958857486e+03
7.580000000000000000e+02	2.020472039233064606e+03
7.590000000000000000e+02	1.965867663998608350e+03
7.600000000000000000e+02	1.912203816048165891e+03
7.610000000000000000e+02	1.859484441572020842e+03
7.620000000000000000e+02	1.807712596657481299e+03
7.630000000000000000e+02	1.756890468453938183e+03
7.640000000000000000e+02	1.707019396950182681e+03
7.650000000000000000e+02	1.658099897310898996e+03
7.660000000000000000e+02	1.610131682719646733e+03
7.670000000000000000e+02	1.563113687676158406e+03
7.680000000000000000e+02	1.517044091696405758e+03
7.690000000000000000e+02	1.471920343364561177e+03
7.700000000000000000e+02	1.427739184686822455e+03
7.710000000000000000e+02	1.384496675697910860e+03
7.720000000000000000e+02	1.342188219272057950e+03
7.730000000000000000e+02	1.300808586091317011e+03
7.740000000000000000e+02	1.260351939725169359e+03
7.750000000000000000e+02	1.220811861776565593e+03
7.760000000000000000e+02	1.182181377050812443e+03
7.770000000000000000e+02	1.144452978704991892e+03
7.780000000000000000e+02	1.107618653336990974e+03
7.790000000000000000e+02	1.071669905974598805e+03
7.800000000000000000e+02	1.036597784926590521e+03
7.810000000000000000e+02	1.002392906459204823e+03
7.820000000000000000e+02	9.690454792629308258e+02
7.830000000000000000e+02	9.365453286760772471e+02
7.840000000000000000e+02	9.048819206331625082e+02
7.850000000000000000e+02	8.740443853077496215e+02
7.860000000000000000e+02	8.440215404209617418e+02
7.870000000000000000e+02	8.148019141885172303e+02
7.880000000000000000e+02	7.863737678807433440e+02
7.890000000000000000e+02	7.587251179716507750e+02
7.900000000000000000e+02	7.318437578547582234e+02
7.910000000000000000e+02	7.057172791049742955e+02
7.920000000000000000e+02	6.803330922674333578e+02
7.930000000000000000e+02	6.556784471557737106e+02
7.940000000000000000e+02	6.317404526439059964e+02
7.950000000000000000e+02	6.085060959368670410e+02
7.960000000000000000e+02	5.859622613078829545e+02
7.970000000000000000e+02	5.640957482902445008e+02
7.980000000000000000e+02	5.428932893140827218e+02
7.990000000000000000e+02	5.223415667795457011e+02
8.000000000000000000e+02	5.024272295592915611e+02
8.010000000000000000e+02	4.831369089245671944e+02
8.020000000000000000e+02	4.644572338904661137e+02
8.030000000000000000e+02	4.463748459772434671e+02
8.040000000000000000e+02	4.288764133858090304e+02
8.050000000000000000e+02	4.119486445867081557e+02
8.060000000000000000e+02	3.955783013230661140e+02
8.070000000000000000e+02	3.797522110290639148e+02
8.080000000000000000e+02	3.644572786665860917e+02
8.090000000000000000e+02	3.496804979836850862e+02
8.100000000000000000e+02	3.354089621994743879e+02
8.110000000000000000e+02	3.216298741209755008e+02
8.120000000000000000e+02	3.083305556983148676e+02
8.130000000000000000e+02	2.954984570254771370e+02
8.140000000000000000e+02	2.831211647945990535e+02
8.150000000000000000e+02	2.711864102124954456e+02
8.160000000000000000e+02	2.596820763887885164e+02
8.170000000000000000e+02	2.485962052056300990e+02
8.180000000000000000e+02	2.379170036795806311e+02
8.190000000000000000e+02	2.276328498267342866e+02
8.200000000000000000e+02	2.177322980426613412e+02
8.210000000000000000e+02	2.082040840091729308e+02
8.220000000000000000e+02	1.990371291403005216e+02
8.230000000000000000e+02	1.902205445802312056e+02
8.240000000000000000e+02	1.817436347662380456e+02
8.250000000000000000e+02	1.735959005699103841e+02
8.260000000000000000e+02	1.657670420302035268e+02
8.270000000000000000e+02	1.582469606920127205e+02
8.280000000000000000e+02	1.510257615641161237e+02
8.290000000000000000e+02	1.440937547104383896e+02
8.300000000000000000e+02	1.374414564886579910e+02
8.310000000000000000e+02	1.310595904502159499e+02
8.320000000000000000e+02	1.249390879157913758e+02
8.330000000000000000e+02	1.190710882402786552e+02
8.340000000000000000e+02	1.134469387812505090e+02
8.350000000000000000e+02	1.080581945847999634e+02
8.360000000000000000e+02	1.028966178025521288e+02
8.370000000000000000e+02	9.795417685349434578e+01
8.380000000000000000e+02	9.322304534411857446e+01
8.390000000000000000e+02	8.869560076018764505e+01
8.400000000000000000e+02	8.436442294323640567e+01
8.410000000000000000e+02	8.022229236469875957e+01
8.420000000000000000e+02	7.626218821031288542e+01
8.430000000000000000e+02	7.247728628720511779e+01
8.440000000000000000e+02	6.886095676578280234e+01
8.450000000000000000e+02	6.540676176828553423e+01
8.460000000000000000e+02	6.210845281555113218e+01
8.470000000000000000e+02	5.895996814324686142e+01
8.480000000000000000e+02	5.595542989850469695e+01
8.490000000000000000e+02	5.308914122757566645e+01
8.500000000000000000e+02	5.035558326479151248e+01
8.510000000000000000e+02	4.774941203278592639e+01
8.520000000000000000e+02	4.526545526358923155e+01
8.530000000000000000e+02	4.289870914986745021e+01
8.540000000000000000e+02	4.064433503523198965e+01
8.550000000000000000e+02	3.849765605219787545e+01
8.560000000000000000e+02	3.645415371602247490e+01
8.570000000000000000e+02	3.450946448230861563e+01
8.580000000000000000e+02	3.265937627590973591e+01
8.590000000000000000e+02	3.089982499833070051e+01
8.600000000000000000e+02	2.922689102047586474e+01
8.610000000000000000e+02	2.763679566725738823e+01
8.620000000000000000e+02	2.612589770024327152e+01
8.630000000000000000e+02	2.469068980419306669e+01
8.640000000000000000e+02	2.332779508300584936e+01
8.650000000000000000e+02	2.203396357028549701e+01
8.660000000000000000e+02	2.080606875941465006e+01
8.670000000000000000e+02	1.964110415772310958e+01
8.680000000000000000e+02	1.853617986903656956e+01
8.690000000000000000e+02	1.748851920859907594e+01
8.700000000000000000e+02	1.649545535407841612e+01
8.710000000000000000e+02	1.555442803608644375e+01
8.720000000000000000e+02	1.466298027137796822e+01
8.730000000000000000e+02	1.381875514163123420e+01
8.740000000000000000e+02	1.301949262046135125e+01
8.750000000000000000e+02	1.226302645107439915e+01
8.760000000000000000e+02	1.154728107673589577e+01
8.770000000000000000e+02	1.087026862600079014e+01
8.780000000000000000e+02	1.023008595443579161e+01
8.790000000000000000e+02	9.624911744356417387e+00
8.800000000000000000e+02	9.053003663901849407e+00
8.810000000000000000e+02	8.512695586580289131e+00
8.820000000000000000e+02	8.002394872235795376e+00
8.830000000000000000e+02	7.520579710214308378e+00
8.840000000000000000e+02	7.065796525342575407e+00
8.850000000000000000e+02	6.636657447177070956e+00
8.860000000000000000e+02	6.231837842833208185e+00
8.870000000000000000e+02	5.850073913564830086e+00
8.880000000000000000e+02	5.490160355133417269e+00
8.890000000000000000e+02	5.150948081882518181e+00
8.900000000000000000e+02	4.831342014317344891e+00
8.910000000000000000e+02	4.530298929881205972e+00
8.920000000000000000e+02	4.246825376519642425e+00
8.930000000000000000e+02	3.979975648529216592e+00
8.940000000000000000e+02	3.728849824101200028e+00
8.950000000000000000e+02	3.492591863890082582e+00
8.960000000000000000e+02	3.270387769863229988e+00
8.970000000000000000e+02	3.061463803620539714e+00
8.980000000000000000e+02	2.865084763311363858e+00
8.990000000000000000e+02	2.680552318220507324e+00
9.000000000000000000e+02	2.507203400044830666e+00
9.010000000000000000e+02	2.344408649837264935e+00
9.020000000000000000e+02	2.191570919555293262e+00
9.030000000000000000e+02	2.048123827116175466e+00
9.040000000000000000e+02	1.913530363830866721e+00
9.050000000000000000e+02	1.787281553062880946e+00
9.060000000000000000e+02	1.668895158936631429e+00
9.070000000000000000e+02	1.557914443902078894e+00
9.080000000000000000e+02	1.453906973948727810e+00
9.090000000000000000e+02	1.356463470251434877e+00
9.100000000000000000e+02	1.265196706023487661e+00
9.110000000000000000e+02	1.179740447348486931e+00
9.120000000000000000e+02	1.099748436761448733e+00
9.130000000000000000e+02	1.024893418351262131e+00
9.140000000000000000e+02	9.548662031608943224e-01
9.150000000000000000e+02	8.893747736682444671e-01
9.160000000000000000e+02	8.281434261394008400e-01
9.170000000000000000e+02	7.709119496567898855e-01
9.180000000000000000e+02	7.174348406373518561e-01
9.190000000000000000e+02	6.674805516701931563e-01
9.200000000000000000e+02	6.208307735190732313e-01
9.210000000000000000e+02	5.772797491522960733e-01
9.220000000000000000e+02	5.366336186811554443e-01
9.230000000000000000e+02	4.987097941076788499e-01
9.240000000000000000e+02	4.633363628031211823e-01
9.250000000000000000e+02	4.303515186601469256e-01
9.260000000000000000e+02	3.996030198839533587e-01
9.270000000000000000e+02	3.709476724105452705e-01
9.280000000000000000e+02	3.442508379638660188e-01
9.290000000000000000e+02	3.193859657874679181e-01
9.300000000000000000e+02	2.962341471107353685e-01
9.310000000000000000e+02	2.746836914342912217e-01
9.320000000000000000e+02	2.546297237440419692e-01
9.330000000000000000e+02	2.359738017882547778e-01
9.340000000000000000e+02	2.186235525770784116e-01
9.350000000000000000e+02	2.024923272889013748e-01
9.360000000000000000e+02	1.874988737928917071e-01
9.370000000000000000e+02	1.735670260218548644e-01
9.380000000000000000e+02	1.606254094541911259e-01
9.390000000000000000e+02	1.486071619881449701e-01
9.400000000000000000e+02	1.374496695156896264e-01
9.410000000000000000e+02	1.270943155272419856e-01
9.420000000000000000e+02	1.174862441019089154e-01
9.430000000000000000e+02	1.085741356611103214e-01
9.440000000000000000e+02	1.003099948861705115e-01
9.450000000000000000e+02	9.264895022278209213e-02
9.460000000000000000e+02	8.554906441713230891e-02
9.470000000000000000e+02	7.897115554988386188e-02
9.480000000000000000e+02	7.287862805514006004e-02
9.490000000000000000e+02	6.723731323195165921e-02
9.500000000000000000e+02	6.201531877585998026e-02
9.510000000000000000e+02	5.718288687737713843e-02
9.520000000000000000e+02	5.271226045319717807e-02
9.530000000000000000e+02	4.857755709429426721e-02
9.540000000000000000e+02	4.475465033289030559e-02
9.550000000000000000e+02	4.122105784757412045e-02
9.560000000000000000e+02	3.795583624261618383e-02
9.570000000000000000e+02	3.493948205374874938e-02
9.580000000000000000e+02	3.215383864838768091e-02
9.590000000000000000e+02	2.958200870344080899e-02
9.600000000000000000e+02	2.720827195850328978e-02
9.610000000000000000e+02	2.501800795637676780e-02
9.620000000000000000e+02	2.299762349647944612e-02
9.630000000000000000e+02	2.113448453984095171e-02
9.640000000000000000e+02	1.941685231701394121e-02
9.650000000000000000e+02	1.783382340238644226e-02
9.660000000000000000e+02	1.637527353005752140e-02
9.670000000000000000e+02	1.503180493765633383e-02
9.680000000000000000e+02	1.379469703524570899e-02
9.690000000000000000e+02	1.265586020677303414e-02
9.700000000000000000e+02	1.160779256142042797e-02
9.710000000000000000e+02	1.064353946167677194e-02
9.720000000000000000e+02	9.756655664016081198e-03
9.730000000000000000e+02	8.941169916733188172e-03
9.740000000000000000e+02	8.191551867769401515e-03
9.750000000000000000e+02	7.502681143270739650e-03
9.760000000000000000e+02	6.869818465169566686e-03
9.770000000000000000e+02	6.288578683281914085e-03
9.780000000000000000e+02	5.754905604275592501e-03
9.790000000000000000e+02	5.265048506403026754e-03
9.800000000000000000e+02	4.815540235118162884e-03
9.810000000000000000e+02	4.403176780619541195e-03
9.820000000000000000e+02	4.024998243994428945e-03
9.830000000000000000e+02	3.678271103991744354e-03
9.840000000000000000e+02	3.360471701536035284e-03
9.850000000000000000e+02	3.069270863921144069e-03
9.860000000000000000e+02	2.802519595201411005e-03
9.870000000000000000e+02	2.558235763640207775e-03
9.880000000000000000e+02	2.334591721190544793e-03
9.890000000000000000e+02	2.129902793879755261e-03
9.900000000000000000e+02	1.942616585660044640e-03
9.910000000000000000e+02	1.771303041777421913e-03
9.920000000000000000e+02	1.614645221012593916e-03
9.930000000000000000e+02	1.471430729267584605e-03
9.940000000000000000e+02	1.340543769919016158e-03
9.950000000000000000e+02	1.220957769141836971e-03
9.960000000000000000e+02	1.111728537033261155e-03
9.970000000000000000e+02	1.011987927843561313e-03
9.980000000000000000e+02	9.209379649553250989e-04
9.990000000000000000e+02	8.378453984528771775e-04
1.000000000000000000e+03	7.620366651956389211e-04
