4.410000000000000000e+02	3.696222109560301498e-73
4.420000000000000000e+02	5.710746166824856951e-71
4.430000000000000000e+02	8.206124437244309956e-69
4.440000000000000000e+02	1.096715002985881856e-66
4.450000000000000000e+02	1.363201062485943840e-64
4.460000000000000000e+02	1.575928436602367189e-62
4.470000000000000000e+02	1.694429536904510125e-60
4.480000000000000000e+02	1.694419650950666008e-58
4.490000000000000000e+02	1.575900853044714837e-56
4.500000000000000000e+02	1.363161295752432169e-54
4.510000000000000000e+02	1.096670213168733374e-52
4.520000000000000000e+02	8.205693548113930325e-51
4.530000000000000000e+02	5.710379671921609906e-49
4.540000000000000000e+02	3.695941772008584703e-47
4.550000000000000000e+02	2.224824207682722064e-45
4.560000000000000000e+02	1.245594629645796440e-43
4.570000000000000000e+02	6.485869376530920137e-42
4.580000000000000000e+02	3.141015746263437795e-40
4.590000000000000000e+02	1.414759028827478036e-38
4.600000000000000000e+02	5.926595403396875369e-37
4.610000000000000000e+02	2.309077611416684526e-35
4.620000000000000000e+02	8.367239996002557244e-34
4.630000000000000000e+02	2.819917264478681900e-32
4.640000000000000000e+02	8.838955590402262821e-31
4.650000000000000000e+02	2.576771938372442216e-29
4.660000000000000000e+02	6.986528863909578404e-28
4.670000000000000000e+02	1.761803132905412002e-26
4.680000000000000000e+02	4.132032637390004988e-25
4.690000000000000000e+02	9.013232072378547540e-24
4.700000000000000000e+02	1.828554077209051902e-22
4.710000000000000000e+02	3.450209834166795845e-21
4.720000000000000000e+02	6.054714280666008584e-20
4.730000000000000000e+02	9.882168251981727003e-19
4.740000000000000000e+02	1.500103688209196282e-17
4.750000000000000000e+02	2.117877120981827561e-16
4.760000000000000000e+02	2.780934011688163201e-15
4.770000000000000000e+02	3.396182763930024914e-14
4.780000000000000000e+02	3.857463881767336368e-13
4.790000000000000000e+02	4.074957917888684097e-12
4.800000000000000000e+02	4.003638278589902372e-11
4.810000000000000000e+02	3.658448809183656684e-10
4.820000000000000000e+02	3.109206573264349671e-09
4.830000000000000000e+02	2.457608026685551338e-08
4.840000000000000000e+02	1.806700236192923302e-07
4.850000000000000000e+02	1.235293143406302499e-06
4.860000000000000000e+02	7.855329474816363547e-06
4.870000000000000000e+02	4.645893229099515108e-05
4.880000000000000000e+02	2.555550627461539506e-04
4.890000000000000000e+02	1.307405171240879098e-03
4.900000000000000000e+02	6.220801629946213010e-03
4.910000000000000000e+02	2.752915949392648748e-02
4.920000000000000000e+02	1.133052402859228147e-01
4.930000000000000000e+02	4.337280256281558777e-01
4.940000000000000000e+02	1.544171097345653276e+00
4.950000000000000000e+02	5.113094253217671081e+00
4.960000000000000000e+02	1.574644869379219614e+01
4.970000000000000000e+02	4.510159402789779648e+01
4.980000000000000000e+02	1.201466332117669253e+02
4.990000000000000000e+02	2.976745900855476634e+02
5.000000000000000000e+02	6.859340597460494564e+02
5.010000000000000000e+02	1.470054435824384427e+03
5.020000000000000000e+02	2.930184121688104369e+03
5.030000000000000000e+02	5.432088655730185565e+03
5.040000000000000000e+02	9.365893886208119511e+03
5.050000000000000000e+02	1.501903611540100792e+04
5.060000000000000000e+02	2.239986160938594185e+04
5.070000000000000000e+02	3.107127349453527495e+04
5.080000000000000000e+02	4.008512269019732048e+04
5.090000000000000000e+02	4.809698195722950913e+04
5.100000000000000000e+02	5.367386617623440543e+04
5.110000000000000000e+02	5.570810395954579872e+04
5.120000000000000000e+02	5.377548310737409338e+04
5.130000000000000000e+02	4.827927157414720568e+04
5.140000000000000000e+02	4.031322497077674052e+04
5.150000000000000000e+02	3.130724272406845193e+04
5.160000000000000000e+02	2.261270637412168435e+04
5.170000000000000000e+02	1.519045251849946362e+04
5.180000000000000000e+02	9.490723578886143514e+03
5.190000000000000000e+02	5.514909405252210490e+03
5.200000000000000000e+02	2.980491485667370853e+03
5.210000000000000000e+02	1.498124248170586043e+03
5.220000000000000000e+02	7.003549883244528473e+02
5.230000000000000000e+02	3.045082504876160101e+02
5.240000000000000000e+02	1.231375041955679848e+02
5.250000000000000000e+02	4.631184410113051086e+01
5.260000000000000000e+02	1.619959836602209791e+01
5.270000000000000000e+02	5.270197187797108107e+00
5.280000000000000000e+02	1.594629989857723418e+00
5.290000000000000000e+02	4.487489393114207359e-01
5.300000000000000000e+02	1.174511808640307797e-01
5.310000000000000000e+02	2.859050227255660603e-02
5.320000000000000000e+02	6.472866164127469291e-03
5.330000000000000000e+02	1.362956247878615440e-03
5.340000000000000000e+02	2.669178679173193729e-04
5.350000000000000000e+02	4.861651505948191176e-05
5.360000000000000000e+02	8.235698641739376994e-06
5.370000000000000000e+02	1.297560193653268859e-06
5.380000000000000000e+02	1.901362945699939974e-07
5.390000000000000000e+02	2.591271885511854636e-08
5.400000000000000000e+02	3.284516025413617315e-09
5.410000000000000000e+02	3.872043540023522278e-10
5.420000000000000000e+02	4.245408881741512560e-11
5.430000000000000000e+02	4.329216062066073242e-12
5.440000000000000000e+02	4.105910164429015393e-13
5.450000000000000000e+02	3.621763351424288615e-14
5.460000000000000000e+02	2.971263319536007281e-15
5.470000000000000000e+02	2.267110343311447581e-16
5.480000000000000000e+02	1.608846537009799069e-17
5.490000000000000000e+02	1.061859426290266673e-18
5.500000000000000000e+02	6.518232965014300261e-20
5.510000000000000000e+02	3.721372764831190189e-21
5.520000000000000000e+02	1.975999891531512203e-22
5.530000000000000000e+02	9.758455879217713082e-24
5.540000000000000000e+02	4.482143268470589225e-25
5.550000000000000000e+02	1.914700323765076350e-26
5.560000000000000000e+02	7.607226233751360120e-28
5.570000000000000000e+02	2.811009403144374842e-29
5.580000000000000000e+02	9.660702530167947955e-31
5.590000000000000000e+02	3.087916626084417980e-32
5.600000000000000000e+02	9.179792552768262726e-34
5.610000000000000000e+02	2.538111010713012699e-35
5.620000000000000000e+02	6.526777447673664804e-37
5.630000000000000000e+02	1.560980364982780762e-38
5.640000000000000000e+02	3.472214299197454483e-40
5.650000000000000000e+02	7.183333786925134009e-42
5.660000000000000000e+02	1.382152673371726968e-43
5.670000000000000000e+02	2.473411831893239058e-45
5.680000000000000000e+02	4.116681756281675825e-47
5.690000000000000000e+02	6.372481752481117776e-49
5.700000000000000000e+02	9.174456614849738632e-51
5.710000000000000000e+02	1.228464319356981219e-52
5.720000000000000000e+02	1.529872322056679703e-54
5.730000000000000000e+02	1.771977786123875552e-56
5.740000000000000000e+02	1.908850006320255822e-58
5.750000000000000000e+02	1.912475055020844681e-60
5.760000000000000000e+02	1.782092324493464140e-62
5.770000000000000000e+02	1.544454310441522148e-64
5.780000000000000000e+02	1.244888271913002858e-66
5.790000000000000000e+02	9.332459863149885918e-69
5.800000000000000000e+02	6.506873011157446015e-71
5.810000000000000000e+02	4.219480423699683440e-73
5.820000000000000000e+02	2.544814124101250082e-75
5.830000000000000000e+02	1.427458863664411808e-77
5.840000000000000000e+02	7.447003908087667123e-80
5.850000000000000000e+02	3.613349801417425147e-82
5.860000000000000000e+02	1.630605402267317995e-84
5.870000000000000000e+02	6.843813904622227291e-87
5.880000000000000000e+02	2.671517059007359316e-89
5.890000000000000000e+02	9.699026738393270159e-92
5.900000000000000000e+02	3.274981163542875675e-94
5.910000000000000000e+02	1.028489592242418907e-96
5.920000000000000000e+02	3.004010462915808743e-99
5.930000000000000000e+02	8.160437176127090855e-102
5.940000000000000000e+02	2.061749297865245664e-104
5.950000000000000000e+02	4.844720533591537572e-107
5.960000000000000000e+02	1.058795409025550620e-109
5.970000000000000000e+02	2.152116682622860394e-112
5.980000000000000000e+02	4.068459747391216700e-115
5.990000000000000000e+02	7.153270991036300324e-118
6.000000000000000000e+02	1.169741174903669309e-120
6.010000000000000000e+02	1.779038397523840710e-123
6.020000000000000000e+02	2.516467413718170450e-126
6.030000000000000000e+02	3.310607886221086457e-129
6.040000000000000000e+02	4.050742387092352657e-132
6.050000000000000000e+02	4.609692424411287379e-135
6.060000000000000000e+02	4.878875296759347118e-138
6.070000000000000000e+02	4.802616756900498010e-141
6.080000000000000000e+02	4.396900024604910198e-144
6.090000000000000000e+02	3.743912540473194995e-147
6.100000000000000000e+02	2.964935457442205385e-150
6.110000000000000000e+02	2.183811947768078037e-153
6.120000000000000000e+02	1.495979618185245104e-156
6.130000000000000000e+02	9.531177562639957240e-160
6.140000000000000000e+02	5.647781534613770702e-163
6.150000000000000000e+02	3.112573838734277130e-166
6.160000000000000000e+02	1.595408426540618894e-169
6.170000000000000000e+02	7.605618638391416085e-173
6.180000000000000000e+02	3.372155971858388152e-176
6.190000000000000000e+02	1.390564721970849667e-179
6.200000000000000000e+02	5.333167278273658579e-183
6.210000000000000000e+02	1.902346612010776562e-186
6.220000000000000000e+02	6.311092385721778681e-190
6.230000000000000000e+02	1.947286580916371428e-193
6.240000000000000000e+02	5.588119044616994499e-197
6.250000000000000000e+02	1.491460900833334556e-200
6.260000000000000000e+02	3.702273861740479001e-204
6.270000000000000000e+02	8.547431993785797656e-208
6.280000000000000000e+02	1.835325979661099532e-211
6.290000000000000000e+02	3.665229854155276300e-215
6.300000000000000000e+02	6.807688310545538809e-219
6.310000000000000000e+02	1.176003343419945181e-222
6.320000000000000000e+02	1.889448657519772450e-226
6.330000000000000000e+02	9.952348554940188567e-230
6.340000000000000000e+02	1.607579201775332795e-228
6.350000000000000000e+02	3.592117168421888320e-227
6.360000000000000000e+02	7.953693322363282932e-226
6.370000000000000000e+02	1.745124279970864128e-224
6.380000000000000000e+02	3.794224747741942874e-223
6.390000000000000000e+02	8.174457042440157815e-222
6.400000000000000000e+02	1.745154781442169881e-220
6.410000000000000000e+02	3.691884953875454945e-219
6.420000000000000000e+02	7.739297454988492159e-218
6.430000000000000000e+02	1.607659571653818062e-216
6.440000000000000000e+02	3.309221325306124922e-215
6.450000000000000000e+02	6.749890230231135713e-214
6.460000000000000000e+02	1.364290258388164972e-212
6.470000000000000000e+02	2.732473872918290081e-211
6.480000000000000000e+02	5.423060257492287916e-210
6.490000000000000000e+02	1.066527392127263076e-208
6.500000000000000000e+02	2.078446117864476439e-207
6.510000000000000000e+02	4.013698058696768398e-206
6.520000000000000000e+02	7.680505396266394514e-205
6.530000000000000000e+02	1.456377869303431719e-203
6.540000000000000000e+02	2.736512997461128276e-202
6.550000000000000000e+02	5.095187044596652383e-201
6.560000000000000000e+02	9.400737373275354105e-200
6.570000000000000000e+02	1.718711095010939141e-198
6.580000000000000000e+02	3.113744784294135479e-197
6.590000000000000000e+02	5.589877848510855248e-196
6.600000000000000000e+02	9.943992642952273768e-195
6.610000000000000000e+02	1.752905255119947989e-193
6.620000000000000000e+02	3.061930041484215792e-192
6.630000000000000000e+02	5.299943704501162788e-191
6.640000000000000000e+02	9.090471748668176545e-190
6.650000000000000000e+02	1.545043667466959688e-188
6.660000000000000000e+02	2.602161621739086951e-187
6.670000000000000000e+02	4.342771193141222260e-186
6.680000000000000000e+02	7.181890866304987035e-185
6.690000000000000000e+02	1.176927814118458746e-183
6.700000000000000000e+02	1.911173098769211870e-182
6.710000000000000000e+02	3.075313487870042820e-181
6.720000000000000000e+02	4.903632720312559292e-180
6.730000000000000000e+02	7.747929273403845039e-179
6.740000000000000000e+02	1.213088632295416910e-177
6.750000000000000000e+02	1.882082213640592759e-176
6.760000000000000000e+02	2.893502220513476889e-175
6.770000000000000000e+02	4.408067351488179148e-174
6.780000000000000000e+02	6.654444314333992230e-173
6.790000000000000000e+02	9.954387455483515174e-172
6.800000000000000000e+02	1.475558589420683880e-170
6.810000000000000000e+02	2.167392410662486325e-169
6.820000000000000000e+02	3.154698142959488860e-168
6.830000000000000000e+02	4.550061261784121939e-167
6.840000000000000000e+02	6.503031384061831080e-166
6.850000000000000000e+02	9.209872712019825586e-165
6.860000000000000000e+02	1.292500077993398166e-163
6.870000000000000000e+02	1.797408123024525802e-162
6.880000000000000000e+02	2.476863049133746500e-161
6.890000000000000000e+02	3.382178001148567241e-160
6.900000000000000000e+02	4.576464508548424021e-159
6.910000000000000000e+02	6.136248076508203344e-158
6.920000000000000000e+02	8.152952110440341180e-157
6.930000000000000000e+02	1.073411010505922186e-155
6.940000000000000000e+02	1.400413769243640773e-154
6.950000000000000000e+02	1.810447229970277185e-153
6.960000000000000000e+02	2.319287254235561942e-152
6.970000000000000000e+02	2.944166616156361629e-151
6.980000000000000000e+02	3.703474840439482413e-150
6.990000000000000000e+02	4.616316589836155862e-149
7.000000000000000000e+02	5.701917694950882806e-148
7.010000000000000000e+02	6.978875888962423595e-147
7.020000000000000000e+02	8.464263558555855861e-146
7.030000000000000000e+02	1.017260199148532327e-144
7.040000000000000000e+02	1.211474005152745879e-143
7.050000000000000000e+02	1.429668402710576238e-142
7.060000000000000000e+02	1.671843842466769946e-141
7.070000000000000000e+02	1.937292839039541034e-140
7.080000000000000000e+02	2.224508186595735954e-139
7.090000000000000000e+02	2.531115221878939711e-138
7.100000000000000000e+02	2.853835887337855268e-137
7.110000000000000000e+02	3.188491373514965572e-136
7.120000000000000000e+02	3.530048479561881921e-135
7.130000000000000000e+02	3.872712570887405652e-134
7.140000000000000000e+02	4.210067246540033902e-133
7.150000000000000000e+02	4.535257731647835371e-132
7.160000000000000000e+02	4.841211809495966108e-131
7.170000000000000000e+02	5.120889065042100792e-130
7.180000000000000000e+02	5.367546598562852531e-129
7.190000000000000000e+02	5.575007439672307547e-128
7.200000000000000000e+02	5.737916858930081594e-127
7.210000000000000000e+02	5.851971778436206069e-126
7.220000000000000000e+02	5.914109578431345962e-125
7.230000000000000000e+02	5.922644740462593516e-124
7.240000000000000000e+02	5.877344818078456410e-123
7.250000000000000000e+02	5.779440955643487072e-122
7.260000000000000000e+02	5.631572290866438551e-121
7.270000000000000000e+02	5.437667745482560373e-120
7.280000000000000000e+02	5.202772594186290728e-119
7.290000000000000000e+02	4.932830495373928970e-118
7.300000000000000000e+02	4.634434117282824878e-117
7.310000000000000000e+02	4.314558929551484643e-116
7.320000000000000000e+02	3.980295078274088301e-115
7.330000000000000000e+02	3.638591546114261410e-114
7.340000000000000000e+02	3.296025133828112447e-113
7.350000000000000000e+02	2.958604376943751911e-112
7.360000000000000000e+02	2.631615575316793037e-111
7.370000000000000000e+02	2.319514933228962365e-110
7.380000000000000000e+02	2.025867651068906670e-109
7.390000000000000000e+02	1.753331916869198296e-108
7.400000000000000000e+02	1.503683310581625322e-107
7.410000000000000000e+02	1.277873289531343802e-106
7.420000000000000000e+02	1.076114237913002984e-105
7.430000000000000000e+02	8.979830405881102574e-105
7.440000000000000000e+02	7.425352298741145261e-104
7.450000000000000000e+02	6.084223580467396018e-103
7.460000000000000000e+02	4.940062439552706654e-102
7.470000000000000000e+02	3.974649926318598415e-101
7.480000000000000000e+02	3.168870567864004567e-100
7.490000000000000000e+02	2.503509768116084417e-99
7.500000000000000000e+02	1.959897016145787253e-98
7.510000000000000000e+02	1.520394833804715143e-97
7.520000000000000000e+02	1.168742106676889361e-96
7.530000000000000000e+02	8.902667806005831433e-96
7.540000000000000000e+02	6.719869174582140149e-95
7.550000000000000000e+02	5.026210115030462370e-94
7.560000000000000000e+02	3.725286114210499259e-93
7.570000000000000000e+02	2.736010750097358537e-92
7.580000000000000000e+02	1.991201163340495828e-91
7.590000000000000000e+02	1.435990766162801433e-90
7.600000000000000000e+02	1.026188939152574446e-89
7.610000000000000000e+02	7.266782862730679829e-89
7.620000000000000000e+02	5.099131469711434623e-88
7.630000000000000000e+02	3.545597296631539038e-87
7.640000000000000000e+02	2.442990498004806837e-86
7.650000000000000000e+02	1.667989529303521016e-85
7.660000000000000000e+02	1.128506420721586427e-84
7.670000000000000000e+02	7.565783695762954128e-84
7.680000000000000000e+02	5.026237188935167154e-83
7.690000000000000000e+02	3.308805276518530161e-82
7.700000000000000000e+02	2.158433198421851425e-81
7.710000000000000000e+02	1.395228011196844019e-80
7.720000000000000000e+02	8.936983032498327041e-80
7.730000000000000000e+02	5.672517600682547771e-79
7.740000000000000000e+02	3.567795413244373255e-78
7.750000000000000000e+02	2.223633486588186676e-77
7.760000000000000000e+02	1.373300697014261869e-76
7.770000000000000000e+02	8.404410320324598766e-76
7.780000000000000000e+02	5.096687739613699815e-75
7.790000000000000000e+02	3.062724815286758570e-74
7.800000000000000000e+02	1.823757540021757769e-73
7.810000000000000000e+02	1.076131627618463535e-72
7.820000000000000000e+02	6.292204988721750467e-72
7.830000000000000000e+02	3.645688026812281389e-71
7.840000000000000000e+02	2.093125714921115493e-70
7.850000000000000000e+02	1.190831451804333635e-69
7.860000000000000000e+02	6.713429798902428571e-69
7.870000000000000000e+02	3.750401635388732690e-68
7.880000000000000000e+02	2.076109610661641926e-67
7.890000000000000000e+02	1.138838001176880189e-66
7.900000000000000000e+02	6.190315640759406723e-66
7.910000000000000000e+02	3.334285698761074388e-65
7.920000000000000000e+02	1.779639339413160360e-64
7.930000000000000000e+02	9.412399609344400116e-64
7.940000000000000000e+02	4.932963351361306344e-63
7.950000000000000000e+02	2.561855280889808470e-62
7.960000000000000000e+02	1.318379583035180696e-61
7.970000000000000000e+02	6.723037237344342420e-61
7.980000000000000000e+02	3.397267439685520695e-60
7.990000000000000000e+02	1.701112864215754586e-59
8.000000000000000000e+02	8.440646127987590610e-59
8.010000000000000000e+02	4.150089179201330476e-58
8.020000000000000000e+02	2.021986899183987088e-57
8.030000000000000000e+02	9.761991331808301277e-57
8.040000000000000000e+02	4.670223556027723273e-56
8.050000000000000000e+02	2.213992240442686201e-55
8.060000000000000000e+02	1.040048736873180522e-54
8.070000000000000000e+02	4.841394354267156509e-54
8.080000000000000000e+02	2.233193730655940439e-53
8.090000000000000000e+02	1.020754992154100157e-52
8.100000000000000000e+02	4.623339623811413865e-52
8.110000000000000000e+02	2.075053287850795228e-51
8.120000000000000000e+02	9.228728778103588605e-51
8.130000000000000000e+02	4.067182718731985080e-50
8.140000000000000000e+02	1.776170515437488651e-49
8.150000000000000000e+02	7.686255227154082794e-49
8.160000000000000000e+02	3.295976589811842377e-48
8.170000000000000000e+02	1.400530617194885291e-47
8.180000000000000000e+02	5.897124117624912115e-47
8.190000000000000000e+02	2.460521145552578364e-46
8.200000000000000000e+02	1.017309515867519487e-45
8.210000000000000000e+02	4.167909536612666668e-45
8.220000000000000000e+02	1.692086784086265853e-44
8.230000000000000000e+02	6.807163074491127151e-44
8.240000000000000000e+02	2.713618855312684093e-43
8.250000000000000000e+02	1.071940583889081606e-42
8.260000000000000000e+02	4.195963978776327009e-42
8.270000000000000000e+02	1.627541086044577796e-41
8.280000000000000000e+02	6.255634158896073047e-41
8.290000000000000000e+02	2.382593189979805979e-40
8.300000000000000000e+02	8.992234457391679829e-40
8.310000000000000000e+02	3.362981820790901297e-39
8.320000000000000000e+02	1.246294244770385759e-38
8.330000000000000000e+02	4.576735680480835309e-38
8.340000000000000000e+02	1.665444809516274021e-37
8.350000000000000000e+02	6.005426158848665308e-37
8.360000000000000000e+02	2.145836308277910343e-36
8.370000000000000000e+02	7.597811586366582235e-36
8.380000000000000000e+02	2.665751251118940955e-35
8.390000000000000000e+02	9.268082604824996585e-35
8.400000000000000000e+02	3.193003114824730659e-34
8.410000000000000000e+02	1.090053868513347922e-33
8.420000000000000000e+02	3.687531602166668686e-33
8.430000000000000000e+02	1.236125920610128694e-32
8.440000000000000000e+02	4.106093626197008794e-32
8.450000000000000000e+02	1.351556340849569191e-31
8.460000000000000000e+02	4.408376036729244981e-31
8.470000000000000000e+02	1.424827483401326782e-30
8.480000000000000000e+02	4.563363940625711052e-30
8.490000000000000000e+02	1.448261884646712052e-29
8.500000000000000000e+02	4.554579298723126567e-29
8.510000000000000000e+02	1.419347073807676649e-28
8.520000000000000000e+02	4.382966160885648299e-28
8.530000000000000000e+02	1.341179172744820278e-27
8.540000000000000000e+02	4.066723596346828336e-27
8.550000000000000000e+02	1.221916931694279295e-26
8.560000000000000000e+02	3.638127221780455334e-26
8.570000000000000000e+02	1.073379392241136744e-25
8.580000000000000000e+02	3.138107351394506530e-25
8.590000000000000000e+02	9.091206269828473030e-25
8.600000000000000000e+02	2.609843099610059888e-24
8.610000000000000000e+02	7.424145219755387233e-24
8.620000000000000000e+02	2.092751634256649742e-23
8.630000000000000000e+02	5.845586525397132472e-23
8.640000000000000000e+02	1.617996838961785276e-22
8.650000000000000000e+02	4.437786619961272777e-22
8.660000000000000000e+02	1.206130600722702727e-21
8.670000000000000000e+02	3.248339609176474785e-21
8.680000000000000000e+02	8.668973823394716302e-21
8.690000000000000000e+02	2.292519969590518207e-20
8.700000000000000000e+02	6.007554719892158563e-20
8.710000000000000000e+02	1.559988925255135340e-19
8.720000000000000000e+02	4.014065613912764713e-19
8.730000000000000000e+02	1.023497040527355669e-18
8.740000000000000000e+02	2.585996229455101731e-18
8.750000000000000000e+02	6.474531609041674253e-18
8.760000000000000000e+02	1.606304942504484465e-17
8.770000000000000000e+02	3.948997037303892473e-17
8.780000000000000000e+02	9.620215312818724175e-17
8.790000000000000000e+02	2.322319391502258931e-16
8.800000000000000000e+02	5.555181808567099783e-16
8.810000000000000000e+02	1.316781685324827247e-15
8.820000000000000000e+02	3.092918312720436613e-15
8.830000000000000000e+02	7.198836244191864787e-15
8.840000000000000000e+02	1.660333425695379386e-14
8.850000000000000000e+02	3.794613084019467294e-14
8.860000000000000000e+02	8.593673719683533452e-14
8.870000000000000000e+02	1.928543296457018391e-13
8.880000000000000000e+02	4.288635124651848650e-13
8.890000000000000000e+02	9.450351782437823316e-13
8.900000000000000000e+02	2.063554883202392035e-12
8.910000000000000000e+02	4.465018319083700664e-12
8.920000000000000000e+02	9.573475674353515987e-12
8.930000000000000000e+02	2.034019926464053591e-11
8.940000000000000000e+02	4.282328116889848834e-11
8.950000000000000000e+02	8.933956830272858267e-11
8.960000000000000000e+02	1.846915095079277182e-10
8.970000000000000000e+02	3.783460325435130071e-10
8.980000000000000000e+02	7.680166044708998917e-10
8.990000000000000000e+02	1.544867393770554981e-09
9.000000000000000000e+02	3.079292728650571034e-09
9.010000000000000000e+02	6.082049045987593565e-09
9.020000000000000000e+02	1.190386605874940671e-08
9.030000000000000000e+02	2.308688380814260669e-08
9.040000000000000000e+02	4.436921805178161401e-08
9.050000000000000000e+02	8.449624408040995213e-08
9.060000000000000000e+02	1.594528207787240024e-07
9.070000000000000000e+02	2.981715344763128132e-07
9.080000000000000000e+02	5.525089611479868255e-07
9.090000000000000000e+02	1.014499048871896672e-06
9.100000000000000000e+02	1.845878597153970210e-06
9.110000000000000000e+02	3.328080299056904685e-06
9.120000000000000000e+02	5.945982551229233617e-06
9.130000000000000000e+02	1.052670946322563906e-05
9.140000000000000000e+02	1.846718988782602508e-05
9.150000000000000000e+02	3.210318822467115419e-05
9.160000000000000000e+02	5.530121682441656663e-05
9.170000000000000000e+02	9.439747590112053800e-05
9.180000000000000000e+02	1.596707069940127256e-04
9.190000000000000000e+02	2.676266061883175620e-04
9.200000000000000000e+02	4.445007492200092917e-04
9.210000000000000000e+02	7.315683023182635624e-04
9.220000000000000000e+02	1.193098870567652330e-03
9.230000000000000000e+02	1.928133770966478002e-03
9.240000000000000000e+02	3.087713951166580137e-03
9.250000000000000000e+02	4.899774925581826431e-03
9.260000000000000000e+02	7.704675883498063142e-03
9.270000000000000000e+02	1.200526604257535698e-02
9.280000000000000000e+02	1.853652732242560414e-02
9.290000000000000000e+02	2.836116945165700204e-02
9.300000000000000000e+02	4.299907031459576645e-02
9.310000000000000000e+02	6.460009682230169470e-02
9.320000000000000000e+02	9.617151201492910029e-02
9.330000000000000000e+02	1.418727187567968284e-01
9.340000000000000000e+02	2.073912888898636064e-01
9.350000000000000000e+02	3.004147844600571493e-01
9.360000000000000000e+02	4.312124242514817074e-01
9.370000000000000000e+02	6.133387459294191713e-01
9.380000000000000000e+02	8.644675755247552829e-01
9.390000000000000000e+02	1.207358344290708541e+00
9.400000000000000000e+02	1.670947633481961958e+00
9.410000000000000000e+02	2.291546441347605434e+00
9.420000000000000000e+02	3.114107919449432771e+00
9.430000000000000000e+02	4.193511388182229460e+00
9.440000000000000000e+02	5.595786891662911877e+00
9.450000000000000000e+02	7.399181464106845851e+00
9.460000000000000000e+02	9.694945285166960858e+00
9.470000000000000000e+02	1.258769520300741185e+01
9.480000000000000000e+02	1.619519742065632428e+01
9.490000000000000000e+02	2.064740357317481312e+01
9.500000000000000000e+02	2.608457822099616408e+01
9.510000000000000000e+02	3.265437402874673012e+01
9.520000000000000000e+02	4.050774610019394828e+01
9.530000000000000000e+02	4.979365059401776961e+01
9.540000000000000000e+02	6.065254488170478453e+01
9.550000000000000000e+02	7.320879529832784272e+01
9.560000000000000000e+02	8.756220001808587483e+01
9.570000000000000000e+02	1.037789425830977734e+02
9.580000000000000000e+02	1.218823978968895716e+02
9.590000000000000000e+02	1.418443072243865402e+02
9.600000000000000000e+02	1.635769111993079434e+02
9.610000000000000000e+02	1.869266694125780361e+02
9.620000000000000000e+02	2.116701924923605986e+02
9.630000000000000000e+02	2.375129608311976313e+02
9.640000000000000000e+02	2.640913000539574114e+02
9.650000000000000000e+02	2.909779282924585573e+02
9.660000000000000000e+02	3.176911907608018169e+02
9.670000000000000000e+02	3.437078645304761153e+02
9.680000000000000000e+02	3.684791668427860714e+02
9.690000000000000000e+02	3.914493532131057805e+02
9.700000000000000000e+02	4.120760681523588005e+02
9.710000000000000000e+02	4.298514324414996395e+02
9.720000000000000000e+02	4.443227349687503533e+02
9.730000000000000000e+02	4.551115580668934513e+02
9.740000000000000000e+02	4.619302107082386897e+02
9.750000000000000000e+02	4.645944740855996429e+02
9.760000000000000000e+02	4.630318715282051585e+02
9.770000000000000000e+02	4.572849445714174408e+02
9.780000000000000000e+02	4.475093284883190563e+02
9.790000000000000000e+02	4.339667487962673249e+02
9.800000000000000000e+02	4.170133786216738372e+02
9.810000000000000000e+02	3.970842797607966759e+02
9.820000000000000000e+02	3.746748757070029114e+02
9.830000000000000000e+02	3.503205562969873768e+02
9.840000000000000000e+02	3.245755814742166763e+02
9.850000000000000000e+02	2.979924342118152367e+02
9.860000000000000000e+02	2.711026756713115446e+02
9.870000000000000000e+02	2.444001916009945603e+02
9.880000000000000000e+02	2.183275052279476256e+02
9.890000000000000000e+02	1.932655889238737643e+02
9.900000000000000000e+02	1.695273560315378063e+02
9.910000000000000000e+02	1.473547755008853528e+02
9.920000000000000000e+02	1.269193424765704634e+02
9.930000000000000000e+02	1.083254704858392614e+02
9.940000000000000000e+02	9.161625317237380273e+01
9.950000000000000000e+02	7.678097824365637791e+01
9.960000000000000000e+02	6.376376134692723241e+01
9.970000000000000000e+02	5.247269695260213496e+01
9.980000000000000000e+02	4.278898818792337266e+01
9.990000000000000000e+02	3.457560752609859378e+01
1.000000000000000000e+03	2.768514450180743580e+01
