4.410000000000000000e+02	2.564151957710199881e+00
4.420000000000000000e+02	2.728584311084232272e+00
4.430000000000000000e+02	2.902809154901175859e+00
4.440000000000000000e+02	3.087358614110868871e+00
4.450000000000000000e+02	3.282790439071462618e+00
4.460000000000000000e+02	3.489689038518707154e+00
4.470000000000000000e+02	3.708666542450580472e+00
4.480000000000000000e+02	3.940363895117077853e+00
4.490000000000000000e+02	4.185451978261031769e+00
4.500000000000000000e+02	4.444632764708059902e+00
4.510000000000000000e+02	4.718640502353545152e+00
4.520000000000000000e+02	5.008242928540355798e+00
4.530000000000000000e+02	5.314242514764226932e+00
4.540000000000000000e+02	5.637477741582754831e+00
4.550000000000000000e+02	5.978824403540266452e+00
4.560000000000000000e+02	6.339196943853075972e+00
4.570000000000000000e+02	6.719549818528383511e+00
4.580000000000000000e+02	7.120878889515696919e+00
4.590000000000000000e+02	7.544222846410627348e+00
4.600000000000000000e+02	7.990664656149319534e+00
4.610000000000000000e+02	8.461333040045460052e+00
4.620000000000000000e+02	8.957403977432436548e+00
4.630000000000000000e+02	9.480102235079714390e+00
4.640000000000000000e+02	1.003070292145543796e+01
4.650000000000000000e+02	1.061053306480618019e+01
4.660000000000000000e+02	1.122097321392061176e+01
4.670000000000000000e+02	1.186345906033483644e+01
4.680000000000000000e+02	1.253948308062618011e+01
4.690000000000000000e+02	1.325059619732563299e+01
4.700000000000000000e+02	1.399840945686106686e+01
4.710000000000000000e+02	1.478459572282036483e+01
4.720000000000000000e+02	1.561089138269766252e+01
4.730000000000000000e+02	1.647909806615771444e+01
4.740000000000000000e+02	1.739108437272005858e+01
4.750000000000000000e+02	1.834878760663101005e+01
4.760000000000000000e+02	1.935421551655254646e+01
4.770000000000000000e+02	2.040944803756138271e+01
4.780000000000000000e+02	2.151663903283186841e+01
4.790000000000000000e+02	2.267801803242423375e+01
4.800000000000000000e+02	2.389589196780772795e+01
4.810000000000000000e+02	2.517264690954925399e+01
4.820000000000000000e+02	2.651074987024469465e+01
4.830000000000000000e+02	2.791275104593584189e+01
4.840000000000000000e+02	2.938128850805191306e+01
4.850000000000000000e+02	3.091910534347139006e+01
4.860000000000000000e+02	3.252912519701443017e+01
4.870000000000000000e+02	3.421478150847288902e+01
4.880000000000000000e+02	3.598136654427214154e+01
4.890000000000000000e+02	3.784116847819822027e+01
4.900000000000000000e+02	3.983158551142696524e+01
4.910000000000000000e+02	4.207413895793691694e+01
4.920000000000000000e+02	4.495168964569593584e+01
4.930000000000000000e+02	4.959759616966770324e+01
4.940000000000000000e+02	5.913215704546277607e+01
4.950000000000000000e+02	8.151024635100928606e+01
4.960000000000000000e+02	1.354539822117856716e+02
4.970000000000000000e+02	2.615115263047213716e+02
4.980000000000000000e+02	5.401678775781052764e+02
4.990000000000000000e+02	1.117013191696551303e+03
5.000000000000000000e+02	2.230046497534724494e+03
5.010000000000000000e+02	4.226148184765517726e+03
5.020000000000000000e+02	7.545272602029711379e+03
5.030000000000000000e+02	1.264838862753672402e+04
5.040000000000000000e+02	1.987684538227852681e+04
5.050000000000000000e+02	2.926086528219929460e+04
5.060000000000000000e+02	4.033601473899958364e+04
5.070000000000000000e+02	5.205734000027595903e+04
5.080000000000000000e+02	6.289419411195979046e+04
5.090000000000000000e+02	7.113055264131675358e+04
5.100000000000000000e+02	7.530237081479835615e+04
5.110000000000000000e+02	7.462192577610067383e+04
5.120000000000000000e+02	6.922074390535306884e+04
5.130000000000000000e+02	6.010841473860704718e+04
5.140000000000000000e+02	4.886496782895239448e+04
5.150000000000000000e+02	3.719531249466464214e+04
5.160000000000000000e+02	2.651746673606193508e+04
5.170000000000000000e+02	1.771646597420972466e+04
5.180000000000000000e+02	1.110539810425816904e+04
5.190000000000000000e+02	6.547797795916543691e+03
5.200000000000000000e+02	3.651514792523218603e+03
5.210000000000000000e+02	1.950246455400229479e+03
5.220000000000000000e+02	1.025373964841492580e+03
5.230000000000000000e+02	5.603986836595487375e+02
5.240000000000000000e+02	3.453357067137483227e+02
5.250000000000000000e+02	2.554178551339219609e+02
5.260000000000000000e+02	2.234721664990444481e+02
5.270000000000000000e+02	2.164849689083086162e+02
5.280000000000000000e+02	2.195707018643968524e+02
5.290000000000000000e+02	2.265509164657819667e+02
5.300000000000000000e+02	2.350603214106294558e+02
5.310000000000000000e+02	2.442640258574230643e+02
5.320000000000000000e+02	2.538921422707547038e+02
5.330000000000000000e+02	2.638672043750454463e+02
5.340000000000000000e+02	2.741723363390865984e+02
5.350000000000000000e+02	2.848083388483597673e+02
5.360000000000000000e+02	2.957808010306852680e+02
5.370000000000000000e+02	3.070965193063121319e+02
5.380000000000000000e+02	3.187625720608403412e+02
5.390000000000000000e+02	3.307860935481191973e+02
5.400000000000000000e+02	3.431742178406339008e+02
5.410000000000000000e+02	3.559340609069894299e+02
5.420000000000000000e+02	3.690727104436238051e+02
5.430000000000000000e+02	3.825972169932331326e+02
5.440000000000000000e+02	3.965145850764944271e+02
5.450000000000000000e+02	4.108317641074527273e+02
5.460000000000000000e+02	4.255556390575742398e+02
5.470000000000000000e+02	4.406930208675511835e+02
5.480000000000000000e+02	4.562506366119621362e+02
5.490000000000000000e+02	4.722351194233569913e+02
5.500000000000000000e+02	4.886529981831254190e+02
5.510000000000000000e+02	5.055106869872202537e+02
5.520000000000000000e+02	5.228144743954991327e+02
5.530000000000000000e+02	5.405705124741617738e+02
5.540000000000000000e+02	5.587848056414640041e+02
5.550000000000000000e+02	5.774631993276015010e+02
5.560000000000000000e+02	5.966113684603807314e+02
5.570000000000000000e+02	6.162348057889887514e+02
5.580000000000000000e+02	6.363388100589085070e+02
5.590000000000000000e+02	6.569284740517141472e+02
5.600000000000000000e+02	6.780086725041996942e+02
5.610000000000000000e+02	6.995840499219782487e+02
5.620000000000000000e+02	7.216590083033798919e+02
5.630000000000000000e+02	7.442376947901567519e+02
5.640000000000000000e+02	7.673239892621520539e+02
5.650000000000000000e+02	7.909214918937532275e+02
5.660000000000000000e+02	8.150335106905675957e+02
5.670000000000000000e+02	8.396630490253731978e+02
5.680000000000000000e+02	8.648127931929913075e+02
5.690000000000000000e+02	8.904851000042854139e+02
5.700000000000000000e+02	9.166819844400403099e+02
5.710000000000000000e+02	9.434051073859877761e+02
5.720000000000000000e+02	9.706557634707224906e+02
5.730000000000000000e+02	9.984348690287170029e+02
5.740000000000000000e+02	1.026742950211055359e+03
5.750000000000000000e+02	1.055580131266894341e+03
5.760000000000000000e+02	1.084946123019006336e+03
5.770000000000000000e+02	1.114840211557067732e+03
5.780000000000000000e+02	1.145261247172624053e+03
5.790000000000000000e+02	1.176207633559887654e+03
5.800000000000000000e+02	1.207677317306700616e+03
5.810000000000000000e+02	1.239667777700136867e+03
5.820000000000000000e+02	1.272176016871293541e+03
5.830000000000000000e+02	1.305198550303871116e+03
5.840000000000000000e+02	1.338731397731115521e+03
5.850000000000000000e+02	1.372770074445637874e+03
5.860000000000000000e+02	1.407309583046506987e+03
5.870000000000000000e+02	1.442344405647836993e+03
5.880000000000000000e+02	1.477868496572862568e+03
5.890000000000000000e+02	1.513875275557207033e+03
5.900000000000000000e+02	1.550357621484719175e+03
5.910000000000000000e+02	1.587307866678841492e+03
5.920000000000000000e+02	1.624717791772021201e+03
5.930000000000000000e+02	1.662578621175165154e+03
5.940000000000000000e+02	1.700881019168560442e+03
5.950000000000000000e+02	1.739615086635045145e+03
5.960000000000000000e+02	1.778770358455540872e+03
5.970000000000000000e+02	1.818335801586288881e+03
5.980000000000000000e+02	1.858299813836335943e+03
5.990000000000000000e+02	1.898650223362953511e+03
6.000000000000000000e+02	1.939374288901745786e+03
6.010000000000000000e+02	1.980458700747233252e+03
6.020000000000000000e+02	2.021889582498664367e+03
6.030000000000000000e+02	2.063652493584721924e+03
6.040000000000000000e+02	2.105732432579660781e+03
6.050000000000000000e+02	2.148113841322225198e+03
6.060000000000000000e+02	2.190780609847453889e+03
6.070000000000000000e+02	2.233716082140208982e+03
6.080000000000000000e+02	2.276903062717932244e+03
6.090000000000000000e+02	2.320323824048771712e+03
6.100000000000000000e+02	2.363960114809796323e+03
6.110000000000000000e+02	2.407793168988593152e+03
6.120000000000000000e+02	2.451803715830049896e+03
6.130000000000000000e+02	2.495971990628604090e+03
6.140000000000000000e+02	2.540277746364718041e+03
6.150000000000000000e+02	2.584700266182755058e+03
6.160000000000000000e+02	2.629218376705847277e+03
6.170000000000000000e+02	2.673810462181746516e+03
6.180000000000000000e+02	2.718454479451997940e+03
6.190000000000000000e+02	2.763127973735166506e+03
6.200000000000000000e+02	2.807808095213179058e+03
6.210000000000000000e+02	2.852471616408210593e+03
6.220000000000000000e+02	2.897094950335863359e+03
6.230000000000000000e+02	2.941654169418767651e+03
6.240000000000000000e+02	2.986125025143071525e+03
6.250000000000000000e+02	3.030482968438645457e+03
6.260000000000000000e+02	3.074703170762230457e+03
6.270000000000000000e+02	3.118760545861141054e+03
6.280000000000000000e+02	3.162629772193556164e+03
6.290000000000000000e+02	3.206285315979891493e+03
6.300000000000000000e+02	3.249701454858206944e+03
6.310000000000000000e+02	3.292852302115139537e+03
6.320000000000000000e+02	3.335711831462379450e+03
6.330000000000000000e+02	3.378253902327321612e+03
6.340000000000000000e+02	3.420452285625149216e+03
6.350000000000000000e+02	3.462280689978320424e+03
6.360000000000000000e+02	3.503712788348138929e+03
6.370000000000000000e+02	3.544722245041930364e+03
6.380000000000000000e+02	3.585282743058183769e+03
6.390000000000000000e+02	3.625368011730957278e+03
6.400000000000000000e+02	3.664951854633834500e+03
6.410000000000000000e+02	3.704008177702804915e+03
6.420000000000000000e+02	3.742511017536552572e+03
6.430000000000000000e+02	3.780434569831885710e+03
6.440000000000000000e+02	3.817753217911318188e+03
6.450000000000000000e+02	3.854441561299197019e+03
6.460000000000000000e+02	3.890474444302244592e+03
6.470000000000000000e+02	3.925826984549917597e+03
6.480000000000000000e+02	3.960474601449639067e+03
6.490000000000000000e+02	3.994393044511679818e+03
6.500000000000000000e+02	4.027558421498291864e+03
6.510000000000000000e+02	4.059947226351599056e+03
6.520000000000000000e+02	4.091536366854778407e+03
6.530000000000000000e+02	4.122303191981143755e+03
6.540000000000000000e+02	4.152225518885954443e+03
6.550000000000000000e+02	4.181281659496070461e+03
6.560000000000000000e+02	4.209450446652934261e+03
6.570000000000000000e+02	4.236711259764896568e+03
6.580000000000000000e+02	4.263044049925415493e+03
6.590000000000000000e+02	4.288429364454396818e+03
6.600000000000000000e+02	4.312848370820654054e+03
6.610000000000000000e+02	4.336282879904381844e+03
6.620000000000000000e+02	4.358715368559418494e+03
6.630000000000000000e+02	4.380129001436189355e+03
6.640000000000000000e+02	4.400507652027277800e+03
6.650000000000000000e+02	4.419835922898832905e+03
6.660000000000000000e+02	4.438099165072295364e+03
6.670000000000000000e+02	4.455283496522291898e+03
6.680000000000000000e+02	4.471375819758013677e+03
6.690000000000000000e+02	4.486363838456919439e+03
6.700000000000000000e+02	4.500236073121188383e+03
6.710000000000000000e+02	4.512981875729022249e+03
6.720000000000000000e+02	4.524591443354620424e+03
6.730000000000000000e+02	4.535055830732446339e+03
6.740000000000000000e+02	4.544366961743243337e+03
6.750000000000000000e+02	4.552517639801139012e+03
6.760000000000000000e+02	4.559501557123165185e+03
6.770000000000000000e+02	4.565313302864453362e+03
6.780000000000000000e+02	4.569948370104430978e+03
6.790000000000000000e+02	4.573403161671393718e+03
6.800000000000000000e+02	4.575674994794902886e+03
6.810000000000000000e+02	4.576762104577604987e+03
6.820000000000000000e+02	4.576663646280159810e+03
6.830000000000000000e+02	4.575379696415157923e+03
6.840000000000000000e+02	4.572911252648033042e+03
6.850000000000000000e+02	4.569260232505146632e+03
6.860000000000000000e+02	4.564429470891395795e+03
6.870000000000000000e+02	4.558422716421837322e+03
6.880000000000000000e+02	4.551244626573970891e+03
6.890000000000000000e+02	4.542900761669464373e+03
6.900000000000000000e+02	4.533397577696203371e+03
6.910000000000000000e+02	4.522742417983634368e+03
6.920000000000000000e+02	4.510943503746429997e+03
6.930000000000000000e+02	4.498009923513528520e+03
6.940000000000000000e+02	4.483951621461564173e+03
6.950000000000000000e+02	4.468779384673660388e+03
6.960000000000000000e+02	4.452504829346435145e+03
6.970000000000000000e+02	4.435140385969902127e+03
6.980000000000000000e+02	4.416699283506746724e+03
6.990000000000000000e+02	4.397195532599135731e+03
7.000000000000000000e+02	4.376643907832934019e+03
7.010000000000000000e+02	4.355059929090712103e+03
7.020000000000000000e+02	4.332459842026509250e+03
7.030000000000000000e+02	4.308860597696718287e+03
7.040000000000000000e+02	4.284279831382820703e+03
7.050000000000000000e+02	4.258735840643002120e+03
7.060000000000000000e+02	4.232247562630850553e+03
7.070000000000000000e+02	4.204834550720472180e+03
7.080000000000000000e+02	4.176516950478370745e+03
7.090000000000000000e+02	4.147315475023379804e+03
7.100000000000000000e+02	4.117251379816765620e+03
7.110000000000000000e+02	4.086346436925403395e+03
7.120000000000000000e+02	4.054622908801537051e+03
7.130000000000000000e+02	4.022103521623250799e+03
7.140000000000000000e+02	3.988811438240205916e+03
7.150000000000000000e+02	3.954770230769585396e+03
7.160000000000000000e+02	3.920003852887477933e+03
7.170000000000000000e+02	3.884536611861086840e+03
7.180000000000000000e+02	3.848393140367265005e+03
7.190000000000000000e+02	3.811598368142840172e+03
7.200000000000000000e+02	3.774177493512125238e+03
7.210000000000000000e+02	3.736155954836775891e+03
7.220000000000000000e+02	3.697559401932910532e+03
7.230000000000000000e+02	3.658413667499997246e+03
7.240000000000000000e+02	3.618744738605576003e+03
7.250000000000000000e+02	3.578578728269314070e+03
7.260000000000000000e+02	3.537941847189270447e+03
7.270000000000000000e+02	3.496860375652525818e+03
7.280000000000000000e+02	3.455360635671541331e+03
7.290000000000000000e+02	3.413468963386727864e+03
7.300000000000000000e+02	3.371211681774784665e+03
7.310000000000000000e+02	3.328615073701325855e+03
7.320000000000000000e+02	3.285705355355249594e+03
7.330000000000000000e+02	3.242508650101147850e+03
7.340000000000000000e+02	3.199050962784852345e+03
7.350000000000000000e+02	3.155358154525947612e+03
7.360000000000000000e+02	3.111455918029761051e+03
7.370000000000000000e+02	3.067369753449975633e+03
7.380000000000000000e+02	3.023124944831605717e+03
7.390000000000000000e+02	2.978746537162597633e+03
7.400000000000000000e+02	2.934259314060864199e+03
7.410000000000000000e+02	2.889687776121983461e+03
7.420000000000000000e+02	2.845056119951294477e+03
7.430000000000000000e+02	2.800388217902481756e+03
7.440000000000000000e+02	2.755707598543187032e+03
7.450000000000000000e+02	2.711037427866525832e+03
7.460000000000000000e+02	2.666400491265774690e+03
7.470000000000000000e+02	2.621819176287841856e+03
7.480000000000000000e+02	2.577315456179473586e+03
7.490000000000000000e+02	2.532910874238515134e+03
7.500000000000000000e+02	2.488626528980870717e+03
7.510000000000000000e+02	2.444483060132179617e+03
7.520000000000000000e+02	2.400500635451578546e+03
7.530000000000000000e+02	2.356698938393304161e+03
7.540000000000000000e+02	2.313097156610268485e+03
7.550000000000000000e+02	2.269713971302182472e+03
7.560000000000000000e+02	2.226567547409200870e+03
7.570000000000000000e+02	2.183675524650557691e+03
7.580000000000000000e+02	2.141055009406136833e+03
7.590000000000000000e+02	2.098722567437450834e+03
7.600000000000000000e+02	2.056694217443060552e+03
7.610000000000000000e+02	2.014985425442077258e+03
7.620000000000000000e+02	1.973611099978002358e+03
7.630000000000000000e+02	1.932585588133870942e+03
7.640000000000000000e+02	1.891922672348371634e+03
7.650000000000000000e+02	1.851635568021397148e+03
7.660000000000000000e+02	1.811736921896295144e+03
7.670000000000000000e+02	1.772238811204975264e+03
7.680000000000000000e+02	1.733152743560933004e+03
7.690000000000000000e+02	1.694489657584253564e+03
7.700000000000000000e+02	1.656259924241668159e+03
7.710000000000000000e+02	1.618473348883841027e+03
7.720000000000000000e+02	1.581139173961202459e+03
7.730000000000000000e+02	1.544266082398852177e+03
7.740000000000000000e+02	1.507862201610308375e+03
7.750000000000000000e+02	1.471935108129207265e+03
7.760000000000000000e+02	1.436491832837429456e+03
7.770000000000000000e+02	1.401538866767565651e+03
7.780000000000000000e+02	1.367082167457130708e+03
7.790000000000000000e+02	1.333127165831487218e+03
7.800000000000000000e+02	1.299678773592052039e+03
7.810000000000000000e+02	1.266741391086019576e+03
7.820000000000000000e+02	1.234318915633574079e+03
7.830000000000000000e+02	1.202414750288333835e+03
7.840000000000000000e+02	1.171031813006604580e+03
7.850000000000000000e+02	1.140172546200923989e+03
7.860000000000000000e+02	1.109838926653301087e+03
7.870000000000000000e+02	1.080032475763570346e+03
7.880000000000000000e+02	1.050754270108308447e+03
7.890000000000000000e+02	1.022004952285867830e+03
7.900000000000000000e+02	9.937847420232152444e+02
7.910000000000000000e+02	9.660934475204568344e+02
7.920000000000000000e+02	9.389304770091595174e+02
7.930000000000000000e+02	9.122948505008506572e+02
7.940000000000000000e+02	8.861852117024022846e+02
7.950000000000000000e+02	8.605998400753479700e+02
7.960000000000000000e+02	8.355366630165783590e+02
7.970000000000000000e+02	8.109932681382883857e+02
7.980000000000000000e+02	7.869669156255008602e+02
7.990000000000000000e+02	7.634545506499875955e+02
8.000000000000000000e+02	7.404528158199250356e+02
8.010000000000000000e+02	7.179580636451671580e+02
8.020000000000000000e+02	6.959663689985875408e+02
8.030000000000000000e+02	6.744735415545418391e+02
8.040000000000000000e+02	6.534751381861065056e+02
8.050000000000000000e+02	6.329664753033902116e+02
8.060000000000000000e+02	6.129426411158633528e+02
8.070000000000000000e+02	5.933985078023090409e+02
8.080000000000000000e+02	5.743287435726867898e+02
8.090000000000000000e+02	5.557278246068756289e+02
8.100000000000000000e+02	5.375900468559716501e+02
8.110000000000000000e+02	5.199095376925122309e+02
8.120000000000000000e+02	5.026802673967076771e+02
8.130000000000000000e+02	4.858960604664794687e+02
8.140000000000000000e+02	4.695506067398084724e+02
8.150000000000000000e+02	4.536374723186245319e+02
8.160000000000000000e+02	4.381501102841616557e+02
8.170000000000000000e+02	4.230818711944347115e+02
8.180000000000000000e+02	4.084260133551752006e+02
8.190000000000000000e+02	3.941757128562816774e+02
8.200000000000000000e+02	3.803240733665127209e+02
8.210000000000000000e+02	3.668641356798484026e+02
8.220000000000000000e+02	3.537888870076021703e+02
8.230000000000000000e+02	3.410912700110372953e+02
8.240000000000000000e+02	3.287641915698798130e+02
8.250000000000000000e+02	3.168005312827610851e+02
8.260000000000000000e+02	3.051931496962354231e+02
8.270000000000000000e+02	2.939348962596290562e+02
8.280000000000000000e+02	2.830186170035582904e+02
8.290000000000000000e+02	2.724371619405284264e+02
8.300000000000000000e+02	2.621833921865779189e+02
8.310000000000000000e+02	2.522501868034659651e+02
8.320000000000000000e+02	2.426304493614172486e+02
8.330000000000000000e+02	2.333171142229358281e+02
8.340000000000000000e+02	2.243031525486746034e+02
8.350000000000000000e+02	2.155815780268058290e+02
8.360000000000000000e+02	2.071454523277722330e+02
8.370000000000000000e+02	1.989878902867160662e+02
8.380000000000000000e+02	1.911020648162777320e+02
8.390000000000000000e+02	1.834812115528285688e+02
8.400000000000000000e+02	1.761186332395586760e+02
8.410000000000000000e+02	1.690077038501700031e+02
8.420000000000000000e+02	1.621418724572392307e+02
8.430000000000000000e+02	1.555146668496037989e+02
8.440000000000000000e+02	1.491196969033972266e+02
8.450000000000000000e+02	1.429506577116081587e+02
8.460000000000000000e+02	1.370013324772683347e+02
8.470000000000000000e+02	1.312655951755863271e+02
8.480000000000000000e+02	1.257374129905325617e+02
8.490000000000000000e+02	1.204108485315549899e+02
8.500000000000000000e+02	1.152800618362565501e+02
8.510000000000000000e+02	1.103393121650025961e+02
8.520000000000000000e+02	1.055829595935403091e+02
8.530000000000000000e+02	1.010054664098160515e+02
8.540000000000000000e+02	9.660139832125629766e+01
8.550000000000000000e+02	9.236542547884620546e+01
8.560000000000000000e+02	8.829232332439177355e+01
8.570000000000000000e+02	8.437697326738485515e+01
8.580000000000000000e+02	8.061436319791503990e+01
8.590000000000000000e+02	7.699958784207709073e+01
8.600000000000000000e+02	7.352784896631762024e+01
8.610000000000000000e+02	7.019445543714708435e+01
8.620000000000000000e+02	6.699482314260916382e+01
8.630000000000000000e+02	6.392447478186123533e+01
8.640000000000000000e+02	6.097903952916212234e+01
8.650000000000000000e+02	5.815425257850223772e+01
8.660000000000000000e+02	5.544595457503649527e+01
8.670000000000000000e+02	5.285009093939877545e+01
8.680000000000000000e+02	5.036271109088395548e+01
8.690000000000000000e+02	4.797996757538631840e+01
8.700000000000000000e+02	4.569811510387582842e+01
8.710000000000000000e+02	4.351350950708094700e+01
8.720000000000000000e+02	4.142260661192798210e+01
8.730000000000000000e+02	3.942196104516061439e+01
8.740000000000000000e+02	3.750822496943666096e+01
8.750000000000000000e+02	3.567814675706051020e+01
8.760000000000000000e+02	3.392856960637563191e+01
8.770000000000000000e+02	3.225643010569665847e+01
8.780000000000000000e+02	3.065875674951765717e+01
8.790000000000000000e+02	2.913266841158511511e+01
8.800000000000000000e+02	2.767537277927527128e+01
8.810000000000000000e+02	2.628416475356408810e+01
8.820000000000000000e+02	2.495642481872665641e+01
8.830000000000000000e+02	2.368961738574936859e+01
8.840000000000000000e+02	2.248128911328533874e+01
8.850000000000000000e+02	2.132906720982991544e+01
8.860000000000000000e+02	2.023065772064048318e+01
8.870000000000000000e+02	1.918384380277197465e+01
8.880000000000000000e+02	1.818648399144860051e+01
8.890000000000000000e+02	1.723651046084190952e+01
8.900000000000000000e+02	1.633192728217658285e+01
8.910000000000000000e+02	1.547080868193911662e+01
8.920000000000000000e+02	1.465129730281898013e+01
8.930000000000000000e+02	1.387160246987026824e+01
8.940000000000000000e+02	1.312999846424076367e+01
8.950000000000000000e+02	1.242482280667905847e+01
8.960000000000000000e+02	1.175447455289473098e+01
8.970000000000000000e+02	1.111741260271597120e+01
8.980000000000000000e+02	1.051215402485957284e+01
8.990000000000000000e+02	9.937272399003875378e+00
9.000000000000000000e+02	9.391396176732763834e+00
9.010000000000000000e+02	8.873207062800513967e+00
9.020000000000000000e+02	8.381438418052466588e+00
9.030000000000000000e+02	7.914873685225123801e+00
9.040000000000000000e+02	7.472344838741510564e+00
9.050000000000000000e+02	7.052730859513687278e+00
9.060000000000000000e+02	6.654956235664188924e+00
9.070000000000000000e+02	6.277989489981372628e+00
9.080000000000000000e+02	5.920841734831175707e+00
9.090000000000000000e+02	5.582565255158501216e+00
9.100000000000000000e+02	5.262252120126500010e+00
9.110000000000000000e+02	4.959032823860122008e+00
9.120000000000000000e+02	4.672074955682839814e+00
9.130000000000000000e+02	4.400581900160873694e+00
9.140000000000000000e+02	4.143791567199156312e+00
9.150000000000000000e+02	3.900975152365803833e+00
9.160000000000000000e+02	3.671435927558822421e+00
9.170000000000000000e+02	3.454508062068501584e+00
9.180000000000000000e+02	3.249555474032466584e+00
9.190000000000000000e+02	3.055970712227078945e+00
9.200000000000000000e+02	2.873173868088708893e+00
9.210000000000000000e+02	2.700611517811761342e+00
9.220000000000000000e+02	2.537755694326276679e+00
9.230000000000000000e+02	2.384102888917465801e+00
9.240000000000000000e+02	2.239173082211357801e+00
9.250000000000000000e+02	2.102508804215997618e+00
9.260000000000000000e+02	1.973674223075086775e+00
9.270000000000000000e+02	1.852254262161536547e+00
9.280000000000000000e+02	1.737853745111072712e+00
9.290000000000000000e+02	1.630096568371616428e+00
9.300000000000000000e+02	1.528624900821671018e+00
9.310000000000000000e+02	1.433098409991087285e+00
9.320000000000000000e+02	1.343193514399653177e+00
9.330000000000000000e+02	1.258602661513214871e+00
9.340000000000000000e+02	1.179033630803256072e+00
9.350000000000000000e+02	1.104208861383970675e+00
9.360000000000000000e+02	1.033864803690792256e+00
9.370000000000000000e+02	9.677512946559254647e-01
9.380000000000000000e+02	9.056309558297516160e-01
9.390000000000000000e+02	8.472786138916551524e-01
9.400000000000000000e+02	7.924807429901392641e-01
9.410000000000000000e+02	7.410349283496306949e-01
9.420000000000000000e+02	6.927493505802736484e-01
9.430000000000000000e+02	6.474422901270923125e-01
9.440000000000000000e+02	6.049416512960635872e-01
9.450000000000000000e+02	5.650845052969747373e-01
9.460000000000000000e+02	5.277166517460564199e-01
9.470000000000000000e+02	4.926921980756058805e-01
9.480000000000000000e+02	4.598731563027371183e-01
9.490000000000000000e+02	4.291290566151373942e-01
9.500000000000000000e+02	4.003365772381575205e-01
9.510000000000000000e+02	3.733791900546408193e-01
9.520000000000000000e+02	3.481468214566003083e-01
9.530000000000000000e+02	3.245355279160148654e-01
9.540000000000000000e+02	3.024471857707216604e-01
9.550000000000000000e+02	2.817891947304894673e-01
9.560000000000000000e+02	2.624741946178212881e-01
9.570000000000000000e+02	2.444197948678488719e-01
9.580000000000000000e+02	2.275483163217797977e-01
9.590000000000000000e+02	2.117865448586812027e-01
9.600000000000000000e+02	1.970654964209328786e-01
9.610000000000000000e+02	1.833201929993674706e-01
9.620000000000000000e+02	1.704894491549607261e-01
9.630000000000000000e+02	1.585156686648505064e-01
9.640000000000000000e+02	1.473446508914603992e-01
9.650000000000000000e+02	1.369254064845210617e-01
9.660000000000000000e+02	1.272099820368288725e-01
9.670000000000000000e+02	1.181532933255877715e-01
9.680000000000000000e+02	1.097129667821601096e-01
9.690000000000000000e+02	1.018491888439686660e-01
9.700000000000000000e+02	9.452456285311836015e-02
9.710000000000000000e+02	8.770397317704269058e-02
9.720000000000000000e+02	8.135445623708155438e-02
9.730000000000000000e+02	7.544507814138869117e-02
9.740000000000000000e+02	6.994681862888765811e-02
9.750000000000000000e+02	6.483246104117282305e-02
9.760000000000000000e+02	6.007648804924826252e-02
9.770000000000000000e+02	5.565498287181978865e-02
9.780000000000000000e+02	5.154553573148078216e-02
9.790000000000000000e+02	4.772715530456698996e-02
9.800000000000000000e+02	4.418018492967785288e-02
9.810000000000000000e+02	4.088622334888174226e-02
9.820000000000000000e+02	3.782804976442189632e-02
9.830000000000000000e+02	3.498955300232259313e-02
9.840000000000000000e+02	3.235566458265649176e-02
9.850000000000000000e+02	2.991229550436913867e-02
9.860000000000000000e+02	2.764627656047001850e-02
9.870000000000000000e+02	2.554530200708215321e-02
9.880000000000000000e+02	2.359787641730087121e-02
9.890000000000000000e+02	2.179326455804452695e-02
9.900000000000000000e+02	2.012144413508652058e-02
9.910000000000000000e+02	1.857306125823862675e-02
9.920000000000000000e+02	1.713938848521880109e-02
9.930000000000000000e+02	1.581228530907391114e-02
9.940000000000000000e+02	1.458416096015425524e-02
9.950000000000000000e+02	1.344793939954243983e-02
9.960000000000000000e+02	1.239702638653964774e-02
9.970000000000000000e+02	1.142527850830174149e-02
9.980000000000000000e+02	1.052697406500452751e-02
9.990000000000000000e+02	9.696785709004925383e-03
1.000000000000000000e+03	8.929754741356328573e-03
