  440.0000	              102
  441.0000	              105
  442.0000	              102
  443.0000	               78
  444.0000	              127
  445.0000	              108
  446.0000	              121
  447.0000	              101
  448.0000	               87
  449.0000	              114
  450.0000	              135
  451.0000	              130
  452.0000	               93
  453.0000	              142
  454.0000	               93
  455.0000	              144
  456.0000	              114
  457.0000	              160
  458.0000	              189
  459.0000	              174
  460.0000	              215
  461.0000	              185
  462.0000	              232
  463.0000	              174
  464.0000	              165
  465.0000	              144
  466.0000	              149
  467.0000	              122
  468.0000	              142
  469.0000	              172
  470.0000	              134
  471.0000	              138
  472.0000	              136
  473.0000	              177
  474.0000	              175
  475.0000	              162
  476.0000	              262
  477.0000	              288
  478.0000	              318
  479.0000	              286
  480.0000	              345
  481.0000	              362
  482.0000	              449
  483.0000	              483
  484.0000	              570
  485.0000	              676
  486.0000	              633
  487.0000	              794
  488.0000	              964
  489.0000	             1020
  490.0000	             1174
  491.0000	             1266
  492.0000	             1550
  493.0000	             1729
  494.0000	             2025
  495.0000	             2574
  496.0000	             2732
  497.0000	             3551
  498.0000	             4338
  499.0000	             5508
  500.0000	             6794
  501.0000	             8699
  502.0000	            11453
  503.0000	            15849
  504.0000	            20004
  505.0000	            26879
  506.0000	            37024
  507.0000	            47180
  508.0000	            59569
  509.0000	            71537
  510.0000	            77034
  511.0000	            76810
  512.0000	            70106
  513.0000	            56785
  514.0000	            43249
  515.0000	            32451
  516.0000	            23308
  517.0000	            17252
  518.0000	            13090
  519.0000	             9987
  520.0000	             7775
  521.0000	             6287
  522.0000	             4970
  523.0000	             4017
  524.0000	             3369
  525.0000	             2725
  526.0000	             2207
  527.0000	             1960
  528.0000	             1658
  529.0000	             1479
  530.0000	             1364
  531.0000	             1185
  532.0000	             1133
  533.0000	             1106
  534.0000	             1015
  535.0000	              854
  536.0000	              992
  537.0000	             1071
  538.0000	              876
  539.0000	             1039
  540.0000	             1061
  541.0000	             1021
  542.0000	             1073
  543.0000	             1040
  544.0000	             1103
  545.0000	             1013
  546.0000	              917
  547.0000	              952
  548.0000	              923
  549.0000	              778
  550.0000	              849
  551.0000	              799
  552.0000	              839
  553.0000	              817
  554.0000	              758
  555.0000	              741
  556.0000	              730
  557.0000	              747
  558.0000	              711
  559.0000	              742
  560.0000	              795
  561.0000	              823
  562.0000	              754
  563.0000	              796
  564.0000	              845
  565.0000	              812
  566.0000	              797
  567.0000	              788
  568.0000	              840
  569.0000	              748
  570.0000	              839
  571.0000	              786
  572.0000	              828
  573.0000	              807
  574.0000	              848
  575.0000	              722
  576.0000	              756
  577.0000	              835
  578.0000	              845
  579.0000	              940
  580.0000	              861
  581.0000	              855
  582.0000	              915
  583.0000	              878
  584.0000	              932
  585.0000	              916
  586.0000	             1037
  587.0000	              963
  588.0000	             1092
  589.0000	             1010
  590.0000	             1106
  591.0000	             1065
  592.0000	             1115
  593.0000	             1156
  594.0000	             1138
  595.0000	             1040
  596.0000	             1203
  597.0000	             1112
  598.0000	             1240
  599.0000	             1254
  600.0000	             1332
  601.0000	             1236
  602.0000	             1182
  603.0000	             1390
  604.0000	             1291
  605.0000	             1236
  606.0000	             1363
  607.0000	             1372
  608.0000	             1462
  609.0000	             1411
  610.0000	             1307
  611.0000	             1425
  612.0000	             1586
  613.0000	             1389
  614.0000	             1455
  615.0000	             1473
  616.0000	             1578
  617.0000	             1529
  618.0000	             1493
  619.0000	             1406
  620.0000	             1442
  621.0000	             1572
  622.0000	             1728
  623.0000	             1630
  624.0000	             1665
  625.0000	             1714
  626.0000	             1717
  627.0000	             1545
  628.0000	             1623
  629.0000	             1612
  630.0000	             1612
  631.0000	             1478
  632.0000	             1566
  633.0000	             1655
  634.0000	             1640
  635.0000	             1462
  636.0000	             1566
  637.0000	             1554
  638.0000	             1725
  639.0000	             1622
  640.0000	             1689
  641.0000	             1560
  642.0000	             1635
  643.0000	             1438
  644.0000	             1667
  645.0000	             1661
  646.0000	             1499
  647.0000	             1590
  648.0000	             1622
  649.0000	             1547
  650.0000	             1572
  651.0000	             1592
  652.0000	             1602
  653.0000	             1535
  654.0000	             1472
  655.0000	             1510
  656.0000	             1577
  657.0000	             1463
  658.0000	             1443
  659.0000	             1488
  660.0000	             1469
  661.0000	             1422
  662.0000	             1448
  663.0000	             1243
  664.0000	             1477
  665.0000	             1377
  666.0000	             1420
  667.0000	             1346
  668.0000	             1218
  669.0000	             1353
  670.0000	             1294
  671.0000	             1302
  672.0000	             1133
  673.0000	             1202
  674.0000	             1180
  675.0000	             1227
  676.0000	             1101
  677.0000	             1261
  678.0000	             1184
  679.0000	             1154
  680.0000	             1124
  681.0000	             1032
  682.0000	             1113
  683.0000	             1027
  684.0000	              963
  685.0000	              995
  686.0000	             1109
  687.0000	             1031
  688.0000	              978
  689.0000	              922
  690.0000	              977
  691.0000	              993
  692.0000	              924
  693.0000	              998
  694.0000	             1004
  695.0000	             1024
  696.0000	              955
  697.0000	             1040
  698.0000	              876
  699.0000	              866
  700.0000	              977
  701.0000	              935
  702.0000	              909
  703.0000	              847
  704.0000	              814
  705.0000	              755
  706.0000	              839
  707.0000	              719
  708.0000	              750
  709.0000	              748
  710.0000	              754
  711.0000	              654
  712.0000	              775
  713.0000	              780
  714.0000	              743
  715.0000	              655
  716.0000	              572
  717.0000	              612
  718.0000	              691
  719.0000	              686
  720.0000	              535
  721.0000	              641
  722.0000	              542
  723.0000	              534
  724.0000	              541
  725.0000	              515
  726.0000	              571
  727.0000	              529
  728.0000	              526
  729.0000	              473
  730.0000	              443
  731.0000	              462
  732.0000	              428
  733.0000	              489
  734.0000	              440
  735.0000	              414
  736.0000	              404
  737.0000	              407
  738.0000	              411
  739.0000	              374
  740.0000	              386
  741.0000	              365
  742.0000	              272
  743.0000	              361
  744.0000	              410
  745.0000	              418
  746.0000	              306
  747.0000	              380
  748.0000	              355
  749.0000	              288
  750.0000	              243
  751.0000	              264
  752.0000	              297
  753.0000	              289
  754.0000	              299
  755.0000	              306
  756.0000	              214
  757.0000	              225
  758.0000	              270
  759.0000	              230
  760.0000	              177
  761.0000	              204
  762.0000	              207
  763.0000	              228
  764.0000	              217
  765.0000	              216
  766.0000	              241
  767.0000	              244
  768.0000	              170
  769.0000	              211
  770.0000	              198
  771.0000	              192
  772.0000	              226
  773.0000	              186
  774.0000	              188
  775.0000	              182
  776.0000	              155
  777.0000	              144
  778.0000	              188
  779.0000	              147
  780.0000	              226
  781.0000	              123
  782.0000	              182
  783.0000	              187
  784.0000	              147
  785.0000	              156
  786.0000	              143
  787.0000	               93
  788.0000	              156
  789.0000	              132
  790.0000	              115
  791.0000	              155
  792.0000	              132
  793.0000	              153
  794.0000	              164
  795.0000	              133
  796.0000	               79
  797.0000	               93
  798.0000	               84
  799.0000	              137
  800.0000	              114
