4.410000000000000000e+02	9.489671187725464918e+00
4.420000000000000000e+02	1.007371044566370522e+01
4.430000000000000000e+02	1.069086824540952918e+01
4.440000000000000000e+02	1.134283738638222161e+01
4.450000000000000000e+02	1.203138569859114071e+01
4.460000000000000000e+02	1.275835869285934443e+01
4.470000000000000000e+02	1.352568226655557382e+01
4.480000000000000000e+02	1.433536546378488730e+01
4.490000000000000000e+02	1.518950328882175782e+01
4.500000000000000000e+02	1.609027957139366904e+01
4.510000000000000000e+02	1.703996988224210796e+01
4.520000000000000000e+02	1.804094449719713467e+01
4.530000000000000000e+02	1.909567140780541550e+01
4.540000000000000000e+02	2.020671937634638127e+01
4.550000000000000000e+02	2.137676103285948059e+01
4.560000000000000000e+02	2.260857601158639341e+01
4.570000000000000000e+02	2.390505412400531426e+01
4.580000000000000000e+02	2.526919856540129317e+01
4.590000000000000000e+02	2.670412915167610279e+01
4.600000000000000000e+02	2.821308558285437940e+01
4.610000000000000000e+02	2.979943072948898219e+01
4.620000000000000000e+02	3.146665393790926402e+01
4.630000000000000000e+02	3.321837434998973038e+01
4.640000000000000000e+02	3.505834423284674273e+01
4.650000000000000000e+02	3.699045231359210817e+01
4.660000000000000000e+02	3.901872711399421689e+01
4.670000000000000000e+02	4.114734027960778207e+01
4.680000000000000000e+02	4.338060989764781539e+01
4.690000000000000000e+02	4.572300379758544864e+01
4.700000000000000000e+02	4.817914282815078764e+01
4.710000000000000000e+02	5.075380410412669363e+01
4.720000000000000000e+02	5.345192421601722543e+01
4.730000000000000000e+02	5.627860239537422160e+01
4.740000000000000000e+02	5.923910362825917275e+01
4.750000000000000000e+02	6.233886170902044910e+01
4.760000000000000000e+02	6.558348222625936330e+01
4.770000000000000000e+02	6.897874547256441247e+01
4.780000000000000000e+02	7.253060926930217533e+01
4.790000000000000000e+02	7.624521169754149241e+01
4.800000000000000000e+02	8.012887372647458051e+01
4.810000000000000000e+02	8.418810173438791367e+01
4.820000000000000000e+02	8.842958994213806534e+01
4.830000000000000000e+02	9.286022292677459689e+01
4.840000000000000000e+02	9.748707918697806463e+01
4.850000000000000000e+02	1.023174407717987719e+02
4.860000000000000000e+02	1.073588327078455507e+02
4.870000000000000000e+02	1.126191958755122187e+02
4.880000000000000000e+02	1.181076103861829978e+02
4.890000000000000000e+02	1.238371125523096055e+02
4.900000000000000000e+02	1.298348415015170190e+02
4.910000000000000000e+02	1.361757518578900772e+02
4.920000000000000000e+02	1.430856853291336108e+02
4.930000000000000000e+02	1.512305008746732540e+02
4.940000000000000000e+02	1.624574041630496026e+02
4.950000000000000000e+02	1.815233694206710311e+02
4.960000000000000000e+02	2.197325977708499067e+02
4.970000000000000000e+02	3.017686155715850873e+02
4.980000000000000000e+02	4.769331052662531647e+02
4.990000000000000000e+02	8.347611251413404716e+02
5.000000000000000000e+02	1.521791235789558868e+03
5.010000000000000000e+02	2.751089227264651527e+03
5.020000000000000000e+02	4.790784537470810392e+03
5.030000000000000000e+02	7.916648852968420215e+03
5.040000000000000000e+02	1.232195152984162269e+04
5.050000000000000000e+02	1.799783115665268997e+04
5.060000000000000000e+02	2.462374097054600497e+04
5.070000000000000000e+02	3.152549036779391463e+04
5.080000000000000000e+02	3.775055339237934822e+04
5.090000000000000000e+02	4.226933457437367906e+04
5.100000000000000000e+02	4.425059391274181689e+04
5.110000000000000000e+02	4.331135544657552964e+04
5.120000000000000000e+02	3.963841339783075091e+04
5.130000000000000000e+02	3.392862084799128206e+04
5.140000000000000000e+02	2.717411069771703842e+04
5.150000000000000000e+02	2.038315192357733758e+04
5.160000000000000000e+02	1.434368470721002996e+04
5.170000000000000000e+02	9.501576309484740705e+03
5.180000000000000000e+02	5.965417766631242557e+03
5.190000000000000000e+02	3.599077695163739008e+03
5.200000000000000000e+02	2.143579834978699182e+03
5.210000000000000000e+02	1.320499340930815833e+03
5.220000000000000000e+02	8.944839102516893945e+02
5.230000000000000000e+02	6.958753110105591304e+02
5.240000000000000000e+02	6.168197539526698847e+02
5.250000000000000000e+02	5.957924190988065902e+02
5.260000000000000000e+02	6.009744197955569689e+02
5.270000000000000000e+02	6.173485999851827728e+02
5.280000000000000000e+02	6.384197938723441439e+02
5.290000000000000000e+02	6.616080120833141791e+02
5.300000000000000000e+02	6.859733052611948096e+02
5.310000000000000000e+02	7.112050125426707154e+02
5.320000000000000000e+02	7.372143692931524583e+02
5.330000000000000000e+02	7.639846571928563890e+02
5.340000000000000000e+02	7.915206858762603588e+02
5.350000000000000000e+02	8.198331274907726538e+02
5.360000000000000000e+02	8.489340301287858210e+02
5.370000000000000000e+02	8.788356205570721613e+02
5.380000000000000000e+02	9.095499971114084019e+02
5.390000000000000000e+02	9.410890444616585455e+02
5.400000000000000000e+02	9.734643992159034269e+02
5.410000000000000000e+02	1.006687426063972111e+03
5.420000000000000000e+02	1.040769195711792008e+03
5.430000000000000000e+02	1.075720462866072467e+03
5.440000000000000000e+02	1.111551643965057565e+03
5.450000000000000000e+02	1.148272794623885375e+03
5.460000000000000000e+02	1.185893586811926298e+03
5.470000000000000000e+02	1.224423285788571548e+03
5.480000000000000000e+02	1.263870726826471582e+03
5.490000000000000000e+02	1.304244291752731897e+03
5.500000000000000000e+02	1.345551885339949195e+03
5.510000000000000000e+02	1.387800911580273350e+03
5.520000000000000000e+02	1.430998249876971840e+03
5.530000000000000000e+02	1.475150231189227725e+03
5.540000000000000000e+02	1.520262614167106904e+03
5.550000000000000000e+02	1.566340561314809975e+03
5.560000000000000000e+02	1.613388615221458622e+03
5.570000000000000000e+02	1.661410674899724654e+03
5.580000000000000000e+02	1.710409972273660287e+03
5.590000000000000000e+02	1.760389048858032311e+03
5.600000000000000000e+02	1.811349732672388654e+03
5.610000000000000000e+02	1.863293115433902585e+03
5.620000000000000000e+02	1.916219530073838996e+03
5.630000000000000000e+02	1.970128528623153670e+03
5.640000000000000000e+02	2.025018860513376239e+03
5.650000000000000000e+02	2.080888451339459607e+03
5.660000000000000000e+02	2.137734382131723578e+03
5.670000000000000000e+02	2.195552869184401061e+03
5.680000000000000000e+02	2.254339244488548957e+03
5.690000000000000000e+02	2.314087936817288210e+03
5.700000000000000000e+02	2.374792453511387521e+03
5.710000000000000000e+02	2.436445363013214319e+03
5.720000000000000000e+02	2.499038278196936062e+03
5.730000000000000000e+02	2.562561840542628033e+03
5.740000000000000000e+02	2.627005705201609089e+03
5.750000000000000000e+02	2.692358526999878450e+03
5.760000000000000000e+02	2.758607947425964994e+03
5.770000000000000000e+02	2.825740582648829786e+03
5.780000000000000000e+02	2.893742012610678557e+03
5.790000000000000000e+02	2.962596771238621841e+03
5.800000000000000000e+02	3.032288337818130913e+03
5.810000000000000000e+02	3.102799129570068544e+03
5.820000000000000000e+02	3.174110495471847571e+03
5.830000000000000000e+02	3.246202711361883303e+03
5.840000000000000000e+02	3.319054976365031507e+03
5.850000000000000000e+02	3.392645410675096628e+03
5.860000000000000000e+02	3.466951054728792769e+03
5.870000000000000000e+02	3.541947869803687809e+03
5.880000000000000000e+02	3.617610740070761040e+03
5.890000000000000000e+02	3.693913476130124764e+03
5.900000000000000000e+02	3.770828820056327459e+03
5.910000000000000000e+02	3.848328451977401983e+03
5.920000000000000000e+02	3.926382998209458947e+03
5.930000000000000000e+02	4.004962040966182940e+03
5.940000000000000000e+02	4.084034129660049075e+03
5.950000000000000000e+02	4.163566793809428418e+03
5.960000000000000000e+02	4.243526557563076494e+03
5.970000000000000000e+02	4.323878955850645070e+03
5.980000000000000000e+02	4.404588552165055262e+03
5.990000000000000000e+02	4.485618957979596416e+03
6.000000000000000000e+02	4.566932853799618897e+03
6.010000000000000000e+02	4.648492011845650268e+03
6.020000000000000000e+02	4.730257320361658458e+03
6.030000000000000000e+02	4.812188809539017711e+03
6.040000000000000000e+02	4.894245679043584460e+03
6.050000000000000000e+02	4.976386327130023346e+03
6.060000000000000000e+02	5.058568381324354959e+03
6.070000000000000000e+02	5.140748730652373524e+03
6.080000000000000000e+02	5.222883559388373214e+03
6.090000000000000000e+02	5.304928382295333904e+03
6.100000000000000000e+02	5.386838081324477571e+03
6.110000000000000000e+02	5.468566943738859663e+03
6.120000000000000000e+02	5.550068701622450135e+03
6.130000000000000000e+02	5.631296572732973800e+03
6.140000000000000000e+02	5.712203302653641003e+03
6.150000000000000000e+02	5.792741208195804575e+03
6.160000000000000000e+02	5.872862222001522241e+03
6.170000000000000000e+02	5.952517938292067811e+03
6.180000000000000000e+02	6.031659659705487684e+03
6.190000000000000000e+02	6.110238445163504366e+03
6.200000000000000000e+02	6.188205158705329268e+03
6.210000000000000000e+02	6.265510519223305892e+03
6.220000000000000000e+02	6.342105151032758840e+03
6.230000000000000000e+02	6.417939635206023013e+03
6.240000000000000000e+02	6.492964561598305409e+03
6.250000000000000000e+02	6.567130581490842815e+03
6.260000000000000000e+02	6.640388460774795021e+03
6.270000000000000000e+02	6.712689133597371438e+03
6.280000000000000000e+02	6.783983756389947303e+03
6.290000000000000000e+02	6.854223762196298594e+03
6.300000000000000000e+02	6.923360915217611364e+03
6.310000000000000000e+02	6.991347365489660660e+03
6.320000000000000000e+02	7.058135703606372772e+03
6.330000000000000000e+02	7.123679015403056837e+03
6.340000000000000000e+02	7.187930936511787877e+03
6.350000000000000000e+02	7.250845706700825758e+03
6.360000000000000000e+02	7.312378223909508051e+03
6.370000000000000000e+02	7.372484097889820077e+03
6.380000000000000000e+02	7.431119703365795431e+03
6.390000000000000000e+02	7.488242232622023039e+03
6.400000000000000000e+02	7.543809747432831500e+03
6.410000000000000000e+02	7.597781230244289873e+03
6.420000000000000000e+02	7.650116634521802553e+03
6.430000000000000000e+02	7.700776934176998111e+03
6.440000000000000000e+02	7.749724171988693342e+03
6.450000000000000000e+02	7.796921506933970704e+03
6.460000000000000000e+02	7.842333260346861607e+03
6.470000000000000000e+02	7.885924960823792389e+03
6.480000000000000000e+02	7.927663387796727875e+03
6.490000000000000000e+02	7.967516613696998320e+03
6.500000000000000000e+02	8.005454044634931051e+03
6.510000000000000000e+02	8.041446459522775513e+03
6.520000000000000000e+02	8.075466047570915180e+03
6.530000000000000000e+02	8.107486444090041005e+03
6.540000000000000000e+02	8.137482764534774105e+03
6.550000000000000000e+02	8.165431636727222212e+03
6.560000000000000000e+02	8.191311231202063937e+03
6.570000000000000000e+02	8.215101289618016381e+03
6.580000000000000000e+02	8.236783151183917653e+03
6.590000000000000000e+02	8.256339777051189230e+03
6.600000000000000000e+02	8.273755772628024715e+03
6.610000000000000000e+02	8.289017407774408639e+03
6.620000000000000000e+02	8.302112634840894316e+03
6.630000000000000000e+02	8.313031104517922358e+03
6.640000000000000000e+02	8.321764179466548740e+03
6.650000000000000000e+02	8.328304945705394857e+03
6.660000000000000000e+02	8.332648221732855745e+03
6.670000000000000000e+02	8.334790565367675299e+03
6.680000000000000000e+02	8.334730278295273820e+03
6.690000000000000000e+02	8.332467408311409599e+03
6.700000000000000000e+02	8.328003749259032702e+03
6.710000000000000000e+02	8.321342838658436449e+03
6.720000000000000000e+02	8.312489953035112194e+03
6.730000000000000000e+02	8.301452100953902118e+03
6.740000000000000000e+02	8.288238013772383056e+03
6.750000000000000000e+02	8.272858134130507096e+03
6.760000000000000000e+02	8.255324602197759305e+03
6.770000000000000000e+02	8.235651239703211104e+03
6.780000000000000000e+02	8.213853531777818716e+03
6.790000000000000000e+02	8.189948606642427876e+03
6.800000000000000000e+02	8.163955213178737722e+03
6.810000000000000000e+02	8.135893696424336667e+03
6.820000000000000000e+02	8.105785971036677438e+03
6.830000000000000000e+02	8.073655492774398226e+03
6.840000000000000000e+02	8.039527228047966673e+03
6.850000000000000000e+02	8.003427621594967604e+03
6.860000000000000000e+02	7.965384562338597789e+03
6.870000000000000000e+02	7.925427347491086948e+03
6.880000000000000000e+02	7.883586644966674612e+03
6.890000000000000000e+02	7.839894454171650068e+03
6.900000000000000000e+02	7.794384065241576536e+03
6.910000000000000000e+02	7.747090016798387296e+03
6.920000000000000000e+02	7.698048052302287033e+03
6.930000000000000000e+02	7.647295075075661771e+03
6.940000000000000000e+02	7.594869102078113428e+03
6.950000000000000000e+02	7.540809216513581305e+03
6.960000000000000000e+02	7.485155519352134434e+03
6.970000000000000000e+02	7.427949079850472117e+03
6.980000000000000000e+02	7.369231885156417775e+03
6.990000000000000000e+02	7.309046789083761723e+03
7.000000000000000000e+02	7.247437460144702527e+03
7.010000000000000000e+02	7.184448328927807779e+03
7.020000000000000000e+02	7.120124534909927206e+03
7.030000000000000000e+02	7.054511872790786583e+03
7.040000000000000000e+02	6.987656738439136461e+03
7.050000000000000000e+02	6.919606074539227848e+03
7.060000000000000000e+02	6.850407316026152330e+03
7.070000000000000000e+02	6.780108335398146664e+03
7.080000000000000000e+02	6.708757387993330667e+03
7.090000000000000000e+02	6.636403057317560524e+03
7.100000000000000000e+02	6.563094200509100119e+03
7.110000000000000000e+02	6.488879894024670648e+03
7.120000000000000000e+02	6.413809379630142757e+03
7.130000000000000000e+02	6.337932010777644791e+03
7.140000000000000000e+02	6.261297199449250911e+03
7.150000000000000000e+02	6.183954363545653905e+03
7.160000000000000000e+02	6.105952874896258436e+03
7.170000000000000000e+02	6.027342007965130506e+03
7.180000000000000000e+02	5.948170889325008829e+03
7.190000000000000000e+02	5.868488447969306435e+03
7.200000000000000000e+02	5.788343366529556988e+03
7.210000000000000000e+02	5.707784033463260130e+03
7.220000000000000000e+02	5.626858496274416211e+03
7.230000000000000000e+02	5.545614415826290497e+03
7.240000000000000000e+02	5.464099021803158394e+03
7.250000000000000000e+02	5.382359069374821956e+03
7.260000000000000000e+02	5.300440797114764791e+03
7.270000000000000000e+02	5.218389886219727487e+03
7.280000000000000000e+02	5.136251421075404323e+03
7.290000000000000000e+02	5.054069851209835178e+03
7.300000000000000000e+02	4.971888954672840555e+03
7.310000000000000000e+02	4.889751802876666261e+03
7.320000000000000000e+02	4.807700726929754637e+03
7.330000000000000000e+02	4.725777285492305055e+03
7.340000000000000000e+02	4.644022234179020415e+03
7.350000000000000000e+02	4.562475496531187673e+03
7.360000000000000000e+02	4.481176136576971658e+03
7.370000000000000000e+02	4.400162332995581892e+03
7.380000000000000000e+02	4.319471354897748824e+03
7.390000000000000000e+02	4.239139539231769959e+03
7.400000000000000000e+02	4.159202269821224945e+03
7.410000000000000000e+02	4.079693958037381435e+03
7.420000000000000000e+02	4.000648025106244859e+03
7.430000000000000000e+02	3.922096886047214866e+03
7.440000000000000000e+02	3.844071935237379876e+03
7.450000000000000000e+02	3.766603533592627173e+03
7.460000000000000000e+02	3.689720997353939310e+03
7.470000000000000000e+02	3.613452588464560449e+03
7.480000000000000000e+02	3.537825506521065563e+03
7.490000000000000000e+02	3.462865882278847494e+03
7.500000000000000000e+02	3.388598772690085298e+03
7.510000000000000000e+02	3.315048157449904465e+03
7.520000000000000000e+02	3.242236937024199506e+03
7.530000000000000000e+02	3.170186932130434798e+03
7.540000000000000000e+02	3.098918884640706437e+03
7.550000000000000000e+02	3.028452459874415581e+03
7.560000000000000000e+02	2.958806250246085710e+03
7.570000000000000000e+02	2.889997780232135483e+03
7.580000000000000000e+02	2.822043512618843579e+03
7.590000000000000000e+02	2.754958855992257668e+03
7.600000000000000000e+02	2.688758173429420367e+03
7.610000000000000000e+02	2.623454792349065428e+03
7.620000000000000000e+02	2.559061015478791887e+03
7.630000000000000000e+02	2.495588132894700720e+03
7.640000000000000000e+02	2.433046435088619546e+03
7.650000000000000000e+02	2.371445227017215529e+03
7.660000000000000000e+02	2.310792843086654557e+03
7.670000000000000000e+02	2.251096663025914495e+03
7.680000000000000000e+02	2.192363128601401058e+03
7.690000000000000000e+02	2.134597761125197849e+03
7.700000000000000000e+02	2.077805179709057029e+03
7.710000000000000000e+02	2.021989120216109768e+03
7.720000000000000000e+02	1.967152454862270361e+03
7.730000000000000000e+02	1.913297212419392508e+03
7.740000000000000000e+02	1.860424598972412241e+03
7.750000000000000000e+02	1.808535019183004124e+03
7.760000000000000000e+02	1.757628098012628470e+03
7.770000000000000000e+02	1.707702702858325893e+03
7.780000000000000000e+02	1.658756966055136900e+03
7.790000000000000000e+02	1.610788307699666575e+03
7.800000000000000000e+02	1.563793458750001037e+03
7.810000000000000000e+02	1.517768484357963416e+03
7.820000000000000000e+02	1.472708807390538595e+03
7.830000000000000000e+02	1.428609232098203620e+03
7.840000000000000000e+02	1.385463967888875004e+03
7.850000000000000000e+02	1.343266653167207778e+03
7.860000000000000000e+02	1.302010379200066382e+03
7.870000000000000000e+02	1.261687713970111417e+03
7.880000000000000000e+02	1.222290725980633624e+03
7.890000000000000000e+02	1.183811007975968096e+03
7.900000000000000000e+02	1.146239700543088247e+03
7.910000000000000000e+02	1.109567515561256187e+03
7.920000000000000000e+02	1.073784759467924459e+03
7.930000000000000000e+02	1.038881356310425872e+03
7.940000000000000000e+02	1.004846870554346879e+03
7.950000000000000000e+02	9.716705296208492655e+02
7.960000000000000000e+02	9.393412461266157152e+02
7.970000000000000000e+02	9.078476398014718143e+02
7.980000000000000000e+02	8.771780590601633776e+02
7.990000000000000000e+02	8.473206022061564227e+02
8.000000000000000000e+02	8.182631382467602634e+02
8.010000000000000000e+02	7.899933273002503711e+02
8.020000000000000000e+02	7.624986405770885085e+02
8.030000000000000000e+02	7.357663799187051836e+02
8.040000000000000000e+02	7.097836968786920124e+02
8.050000000000000000e+02	6.845376113326125278e+02
8.060000000000000000e+02	6.600150296039612385e+02
8.070000000000000000e+02	6.362027620951388371e+02
8.080000000000000000e+02	6.130875404135925919e+02
8.090000000000000000e+02	5.906560339845418639e+02
8.100000000000000000e+02	5.688948661429502636e+02
8.110000000000000000e+02	5.477906296986192274e+02
8.120000000000000000e+02	5.273299019694541130e+02
8.130000000000000000e+02	5.074992592791024322e+02
8.140000000000000000e+02	4.882852909162784840e+02
8.150000000000000000e+02	4.696746125541608308e+02
8.160000000000000000e+02	4.516538791292954329e+02
8.170000000000000000e+02	4.342097971804340091e+02
8.180000000000000000e+02	4.173291366487047753e+02
8.190000000000000000e+02	4.009987421414319329e+02
8.200000000000000000e+02	3.852055436628084522e+02
8.210000000000000000e+02	3.699365668154665059e+02
8.220000000000000000e+02	3.551789424777920772e+02
8.230000000000000000e+02	3.409199159625917446e+02
8.240000000000000000e+02	3.271468556634359857e+02
8.250000000000000000e+02	3.138472611956830747e+02
8.260000000000000000e+02	3.010087710398207150e+02
8.270000000000000000e+02	2.886191696953588917e+02
8.280000000000000000e+02	2.766663943540590367e+02
8.290000000000000000e+02	2.651385411017982392e+02
8.300000000000000000e+02	2.540238706588385185e+02
8.310000000000000000e+02	2.433108136687050376e+02
8.320000000000000000e+02	2.329879755462689843e+02
8.330000000000000000e+02	2.230441408959890452e+02
8.340000000000000000e+02	2.134682775115787479e+02
8.350000000000000000e+02	2.042495399686532949e+02
8.360000000000000000e+02	1.953772728221493367e+02
8.370000000000000000e+02	1.868410134205263091e+02
8.380000000000000000e+02	1.786304943489308243e+02
8.390000000000000000e+02	1.707356455136509226e+02
8.400000000000000000e+02	1.631465958802991452e+02
8.410000000000000000e+02	1.558536748782442771e+02
8.420000000000000000e+02	1.488474134838628800e+02
8.430000000000000000e+02	1.421185449952072872e+02
8.440000000000000000e+02	1.356580055106797431e+02
8.450000000000000000e+02	1.294569341242790301e+02
8.460000000000000000e+02	1.235066728499243283e+02
8.470000000000000000e+02	1.177987662872901780e+02
8.480000000000000000e+02	1.123249610414835900e+02
8.490000000000000000e+02	1.070772049087756130e+02
8.500000000000000000e+02	1.020476458404567666e+02
8.510000000000000000e+02	9.722863069673151415e+01
8.520000000000000000e+02	9.261270380238728706e+01
8.530000000000000000e+02	8.819260531578358098e+01
8.540000000000000000e+02	8.396126942250067771e+01
8.550000000000000000e+02	7.991182236476529965e+01
8.560000000000000000e+02	7.603758031753889668e+01
8.570000000000000000e+02	7.233204712191206909e+01
8.580000000000000000e+02	6.878891188618963781e+01
8.590000000000000000e+02	6.540204646479253370e+01
8.600000000000000000e+02	6.216550282482764089e+01
8.610000000000000000e+02	5.907351030989950402e+01
8.620000000000000000e+02	5.612047281045263247e+01
8.630000000000000000e+02	5.330096584964388740e+01
8.640000000000000000e+02	5.060973359344929889e+01
8.650000000000000000e+02	4.804168579341324374e+01
8.660000000000000000e+02	4.559189467014734021e+01
8.670000000000000000e+02	4.325559174538584273e+01
8.680000000000000000e+02	4.102816463010077541e+01
8.690000000000000000e+02	3.890515377587855994e+01
8.700000000000000000e+02	3.688224919645764288e+01
8.710000000000000000e+02	3.495528716602561303e+01
8.720000000000000000e+02	3.312024690057715759e+01
8.730000000000000000e+02	3.137324722833496438e+01
8.740000000000000000e+02	2.971054325494637283e+01
8.750000000000000000e+02	2.812852302887525013e+01
8.760000000000000000e+02	2.662370421212571259e+01
8.770000000000000000e+02	2.519273076115160137e+01
8.780000000000000000e+02	2.383236962253038627e+01
8.790000000000000000e+02	2.253950744770846271e+01
8.800000000000000000e+02	2.131114733086053903e+01
8.810000000000000000e+02	2.014440557364525120e+01
8.820000000000000000e+02	1.903650848038758170e+01
8.830000000000000000e+02	1.798478918697032825e+01
8.840000000000000000e+02	1.698668452647844873e+01
8.850000000000000000e+02	1.603973193440600653e+01
8.860000000000000000e+02	1.514156639601011811e+01
8.870000000000000000e+02	1.428991743817686988e+01
8.880000000000000000e+02	1.348260616795311151e+01
8.890000000000000000e+02	1.271754235969366853e+01
8.900000000000000000e+02	1.199272159257653847e+01
8.910000000000000000e+02	1.130622244004984367e+01
8.920000000000000000e+02	1.065620371259178079e+01
8.930000000000000000e+02	1.004090175499141857e+01
8.940000000000000000e+02	9.458627799190193031e+00
8.950000000000000000e+02	8.907765373565641909e+00
8.960000000000000000e+02	8.386767769385761184e+00
8.970000000000000000e+02	7.894155565018505349e+00
8.980000000000000000e+02	7.428514208342382297e+00
8.990000000000000000e+02	6.988491657674517299e+00
9.000000000000000000e+02	6.572796081408161406e+00
9.010000000000000000e+02	6.180193616435690984e+00
9.020000000000000000e+02	5.809506185322518945e+00
9.030000000000000000e+02	5.459609372094520019e+00
9.040000000000000000e+02	5.129430356404321323e+00
9.050000000000000000e+02	4.817945905751203739e+00
9.060000000000000000e+02	4.524180425344845879e+00
9.070000000000000000e+02	4.247204065124432937e+00
9.080000000000000000e+02	3.986130883371896250e+00
9.090000000000000000e+02	3.740117066290532311e+00
9.100000000000000000e+02	3.508359202858633896e+00
9.110000000000000000e+02	3.290092614210738731e+00
9.120000000000000000e+02	3.084589736747691546e+00
9.130000000000000000e+02	2.891158558129600209e+00
9.140000000000000000e+02	2.709141105263798810e+00
9.150000000000000000e+02	2.537911983361824220e+00
9.160000000000000000e+02	2.376876965106244022e+00
9.170000000000000000e+02	2.225471628938348712e+00
9.180000000000000000e+02	2.083160045452445264e+00
9.190000000000000000e+02	1.949433510860353103e+00
9.200000000000000000e+02	1.823809326471443004e+00
9.210000000000000000e+02	1.705829623118557237e+00
9.220000000000000000e+02	1.595060229447996969e+00
9.230000000000000000e+02	1.491089582983176953e+00
9.240000000000000000e+02	1.393527682865107309e+00
9.250000000000000000e+02	1.302005083169566202e+00
9.260000000000000000e+02	1.216171925699778944e+00
9.270000000000000000e+02	1.135697011154639391e+00
9.280000000000000000e+02	1.060266907576123296e+00
9.290000000000000000e+02	9.895850949848579159e-01
9.300000000000000000e+02	9.233711451203343579e-01
9.310000000000000000e+02	8.613599352111536156e-01
9.320000000000000000e+02	8.033008947115226617e-01
9.330000000000000000e+02	7.489572839521970726e-01
9.340000000000000000e+02	6.981055036676775405e-01
9.350000000000000000e+02	6.505344343760487424e-01
9.360000000000000000e+02	6.060448046036334135e-01
9.370000000000000000e+02	5.644485869635049724e-01
9.380000000000000000e+02	5.255684211144209250e-01
9.390000000000000000e+02	4.892370626452897664e-01
9.400000000000000000e+02	4.552968569493373030e-01
9.410000000000000000e+02	4.235992371719236593e-01
9.420000000000000000e+02	3.940042453361393693e-01
9.430000000000000000e+02	3.663800757710184430e-01
9.440000000000000000e+02	3.406026399881779132e-01
9.450000000000000000e+02	3.165551521740354035e-01
9.460000000000000000e+02	2.941277344862221477e-01
9.470000000000000000e+02	2.732170413644742224e-01
9.480000000000000000e+02	2.537259020880177629e-01
9.490000000000000000e+02	2.355629808332513342e-01
9.500000000000000000e+02	2.186424535072438169e-01
9.510000000000000000e+02	2.028837006542697774e-01
9.520000000000000000e+02	1.882110157541584117e-01
9.530000000000000000e+02	1.745533282526368635e-01
9.540000000000000000e+02	1.618439406850685769e-01
9.550000000000000000e+02	1.500202792759640080e-01
9.560000000000000000e+02	1.390236574173838446e-01
9.570000000000000000e+02	1.287990514497691363e-01
9.580000000000000000e+02	1.192948881888787477e-01
9.590000000000000000e+02	1.104628436622811516e-01
9.600000000000000000e+02	1.022576525382904028e-01
9.610000000000000000e+02	9.463692774927646989e-02
9.620000000000000000e+02	8.756098982994593716e-02
9.630000000000000000e+02	8.099270550943719893e-02
9.640000000000000000e+02	7.489733511391492848e-02
9.650000000000000000e+02	6.924238835375448597e-02
9.660000000000000000e+02	6.399748808637775732e-02
9.670000000000000000e+02	5.913424166233782059e-02
9.680000000000000000e+02	5.462611947833272835e-02
9.690000000000000000e+02	5.044834037646555441e-02
9.700000000000000000e+02	4.657776354425115228e-02
9.710000000000000000e+02	4.299278658460739533e-02
9.720000000000000000e+02	3.967324943934662229e-02
9.730000000000000000e+02	3.660034386352104679e-02
9.740000000000000000e+02	3.375652816135731732e-02
9.750000000000000000e+02	3.112544690746673476e-02
9.760000000000000000e+02	2.869185538951779871e-02
9.770000000000000000e+02	2.644154852063514832e-02
9.780000000000000000e+02	2.436129398143343713e-02
9.790000000000000000e+02	2.243876936282329995e-02
9.800000000000000000e+02	2.066250309153766854e-02
9.810000000000000000e+02	1.902181893073738236e-02
9.820000000000000000e+02	1.750678385806262588e-02
9.830000000000000000e+02	1.610815913312216643e-02
9.840000000000000000e+02	1.481735437565136204e-02
9.850000000000000000e+02	1.362638448444159454e-02
9.860000000000000000e+02	1.252782923565325980e-02
9.870000000000000000e+02	1.151479540727997145e-02
9.880000000000000000e+02	1.058088128434621529e-02
9.890000000000000000e+02	9.720143406900538102e-03
9.900000000000000000e+02	8.927065430024779327e-03
9.910000000000000000e+02	8.196528971922448573e-03
9.920000000000000000e+02	7.523786332689954767e-03
9.930000000000000000e+02	6.904434972620135565e-03
9.940000000000000000e+02	6.334393644849292682e-03
9.950000000000000000e+02	5.809880082845579261e-03
9.960000000000000000e+02	5.327390148658664795e-03
9.970000000000000000e+02	4.883678353016591457e-03
9.980000000000000000e+02	4.475739663275466948e-03
9.990000000000000000e+02	4.100792519910276095e-03
1.000000000000000000e+03	3.756262986689084399e-03
