4.410000000000000000e+02	7.913449856138218053e+00
4.420000000000000000e+02	8.422519770726875521e+00
4.430000000000000000e+02	8.961858667396620959e+00
4.440000000000000000e+02	9.533096940236260863e+00
4.450000000000000000e+02	1.013794183476673538e+01
4.460000000000000000e+02	1.077818039788654758e+01
4.470000000000000000e+02	1.145568250157773704e+01
4.480000000000000000e+02	1.217240393987700919e+01
4.490000000000000000e+02	1.293038959843939573e+01
4.500000000000000000e+02	1.373177669583418314e+01
4.510000000000000000e+02	1.457879809551609540e+01
4.520000000000000000e+02	1.547378568720718306e+01
4.530000000000000000e+02	1.641917383620870297e+01
4.540000000000000000e+02	1.741750289893435166e+01
4.550000000000000000e+02	1.847142280271936698e+01
4.560000000000000000e+02	1.958369668771298322e+01
4.570000000000000000e+02	2.075720460840382842e+01
4.580000000000000000e+02	2.199494729206048405e+01
4.590000000000000000e+02	2.330004995109223387e+01
4.600000000000000000e+02	2.467576614604750063e+01
4.610000000000000000e+02	2.612548169566988676e+01
4.620000000000000000e+02	2.765271863012598530e+01
4.630000000000000000e+02	2.926113918320269036e+01
4.640000000000000000e+02	3.095454981894596003e+01
4.650000000000000000e+02	3.273690528788052490e+01
4.660000000000000000e+02	3.461231270760639944e+01
4.670000000000000000e+02	3.658503566221861547e+01
4.680000000000000000e+02	3.865949831463732522e+01
4.690000000000000000e+02	4.084028952557216741e+01
4.700000000000000000e+02	4.313216697247101195e+01
4.710000000000000000e+02	4.554006126142586908e+01
4.720000000000000000e+02	4.806908002462682106e+01
4.730000000000000000e+02	5.072451199556452650e+01
4.740000000000000000e+02	5.351183105379050176e+01
4.750000000000000000e+02	5.643670023065029540e+01
4.760000000000000000e+02	5.950497566700547480e+01
4.770000000000000000e+02	6.272271051356219118e+01
4.780000000000000000e+02	6.609615876404410528e+01
4.790000000000000000e+02	6.963177901117181534e+01
4.800000000000000000e+02	7.333623811593180619e+01
4.810000000000000000e+02	7.721641478632083988e+01
4.820000000000000000e+02	8.127940309898394844e+01
4.830000000000000000e+02	8.553251621201778221e+01
4.840000000000000000e+02	8.998329165711308519e+01
4.850000000000000000e+02	9.463950518602364070e+01
4.860000000000000000e+02	9.950922542712817176e+01
4.870000000000000000e+02	1.046010470482821830e+02
4.880000000000000000e+02	1.099250445337386992e+02
4.890000000000000000e+02	1.154964109300866397e+02
4.900000000000000000e+02	1.213483149191283843e+02
4.910000000000000000e+02	1.275738499236553452e+02
4.920000000000000000e+02	1.344521005468641874e+02
4.930000000000000000e+02	1.427960724778209567e+02
4.940000000000000000e+02	1.548311888128530143e+02
4.950000000000000000e+02	1.762140336064053940e+02
4.960000000000000000e+02	2.202228913473621219e+02
4.970000000000000000e+02	3.155262586989925353e+02
4.980000000000000000e+02	5.187994670404483486e+02
4.990000000000000000e+02	9.320210365159250614e+02
5.000000000000000000e+02	1.720731952404453295e+03
5.010000000000000000e+02	3.123914148638977622e+03
5.020000000000000000e+02	5.440488187915708295e+03
5.030000000000000000e+02	8.976349322268535616e+03
5.040000000000000000e+02	1.394496915360557250e+04
5.050000000000000000e+02	2.033624650055411257e+04
5.060000000000000000e+02	2.779652147729511853e+04
5.070000000000000000e+02	3.558187631238750328e+04
5.080000000000000000e+02	4.263856749229618435e+04
5.090000000000000000e+02	4.782084638179944159e+04
5.100000000000000000e+02	5.019166088182946987e+04
5.110000000000000000e+02	4.929954181565044564e+04
5.120000000000000000e+02	4.531961681451687036e+04
5.130000000000000000e+02	3.899838851089238597e+04
5.140000000000000000e+02	3.142613982611351821e+04
5.150000000000000000e+02	2.373207464220938709e+04
5.160000000000000000e+02	1.681850647543048399e+04
5.170000000000000000e+02	1.121603212782542505e+04
5.180000000000000000e+02	7.077732340061453215e+03
5.190000000000000000e+02	4.274116128003758604e+03
5.200000000000000000e+02	2.526131732970171470e+03
5.210000000000000000e+02	1.522376420395752120e+03
5.220000000000000000e+02	9.931611357905541126e+02
5.230000000000000000e+02	7.400714493056245828e+02
5.240000000000000000e+02	6.345388844175936356e+02
5.250000000000000000e+02	6.018256442129421657e+02
5.260000000000000000e+02	6.025342825564034683e+02
5.270000000000000000e+02	6.177027241629697301e+02
5.280000000000000000e+02	6.389612195721831540e+02
5.290000000000000000e+02	6.629136549735725339e+02
5.300000000000000000e+02	6.882941538597502813e+02
5.310000000000000000e+02	7.146730904748077364e+02
5.320000000000000000e+02	7.419227583361198413e+02
5.330000000000000000e+02	7.700159347597084434e+02
5.340000000000000000e+02	7.989562439056632002e+02
5.350000000000000000e+02	8.287560012592784915e+02
5.360000000000000000e+02	8.594297016672030622e+02
5.370000000000000000e+02	8.909922383000931632e+02
5.380000000000000000e+02	9.234584384183025350e+02
5.390000000000000000e+02	9.568429369892996874e+02
5.400000000000000000e+02	9.911601301029872957e+02
5.410000000000000000e+02	1.026424145506734703e+03
5.420000000000000000e+02	1.062648816216641990e+03
5.430000000000000000e+02	1.099847654310895223e+03
5.440000000000000000e+02	1.138033824370640787e+03
5.450000000000000000e+02	1.177220116496634773e+03
5.460000000000000000e+02	1.217418918915127051e+03
5.470000000000000000e+02	1.258642190202350776e+03
5.480000000000000000e+02	1.300901431160956236e+03
5.490000000000000000e+02	1.344207656383930953e+03
5.500000000000000000e+02	1.388571365543378533e+03
5.510000000000000000e+02	1.434002514443362543e+03
5.520000000000000000e+02	1.480510485877780638e+03
5.530000000000000000e+02	1.528104060335987924e+03
5.540000000000000000e+02	1.576791386600572423e+03
5.550000000000000000e+02	1.626579952283370631e+03
5.560000000000000000e+02	1.677476554347397496e+03
5.570000000000000000e+02	1.729487269663928146e+03
5.580000000000000000e+02	1.782617425655461602e+03
5.590000000000000000e+02	1.836871571076721011e+03
5.600000000000000000e+02	1.892253446987194366e+03
5.610000000000000000e+02	1.948765957970003456e+03
5.620000000000000000e+02	2.006411143653063618e+03
5.630000000000000000e+02	2.065190150589618952e+03
5.640000000000000000e+02	2.125103204556223773e+03
5.650000000000000000e+02	2.186149583327168330e+03
5.660000000000000000e+02	2.248327589985115537e+03
5.670000000000000000e+02	2.311634526828450817e+03
5.680000000000000000e+02	2.376066669936369635e+03
5.690000000000000000e+02	2.441619244453229385e+03
5.700000000000000000e+02	2.508286400653978944e+03
5.710000000000000000e+02	2.576061190852708478e+03
5.720000000000000000e+02	2.644935547216414307e+03
5.730000000000000000e+02	2.714900260546000482e+03
5.740000000000000000e+02	2.785944960086327683e+03
5.750000000000000000e+02	2.858058094426770367e+03
5.760000000000000000e+02	2.931226913553223312e+03
5.770000000000000000e+02	3.005437452111857056e+03
5.780000000000000000e+02	3.080674513944109549e+03
5.790000000000000000e+02	3.156921657951440466e+03
5.800000000000000000e+02	3.234161185347255014e+03
5.810000000000000000e+02	3.312374128352137632e+03
5.820000000000000000e+02	3.391540240387103495e+03
5.830000000000000000e+02	3.471637987817972771e+03
5.840000000000000000e+02	3.552644543302246802e+03
5.850000000000000000e+02	3.634535780787948624e+03
5.860000000000000000e+02	3.717286272211832511e+03
5.870000000000000000e+02	3.800869285942143051e+03
5.880000000000000000e+02	3.885256787008760512e+03
5.890000000000000000e+02	3.970419439161022638e+03
5.900000000000000000e+02	4.056326608790866430e+03
5.910000000000000000e+02	4.142946370756114447e+03
5.920000000000000000e+02	4.230245516135782964e+03
5.930000000000000000e+02	4.318189561946196591e+03
5.940000000000000000e+02	4.406742762843504352e+03
5.950000000000000000e+02	4.495868124834790251e+03
5.960000000000000000e+02	4.585527421016587141e+03
5.970000000000000000e+02	4.675681209355947431e+03
5.980000000000000000e+02	4.766288852525602124e+03
5.990000000000000000e+02	4.857308539800907965e+03
6.000000000000000000e+02	4.948697311022445319e+03
6.010000000000000000e+02	5.040411082624133087e+03
6.020000000000000000e+02	5.132404675722705178e+03
6.030000000000000000e+02	5.224631846260289421e+03
6.040000000000000000e+02	5.317045317187656110e+03
6.050000000000000000e+02	5.409596812671491534e+03
6.060000000000000000e+02	5.502237094304790844e+03
6.070000000000000000e+02	5.594915999295201800e+03
6.080000000000000000e+02	5.687582480601819043e+03
6.090000000000000000e+02	5.780184648986626598e+03
6.100000000000000000e+02	5.872669816942491707e+03
6.110000000000000000e+02	5.964984544455283867e+03
6.120000000000000000e+02	6.057074686553444735e+03
6.130000000000000000e+02	6.148885442594058077e+03
6.140000000000000000e+02	6.240361407230337136e+03
6.150000000000000000e+02	6.331446623001222179e+03
6.160000000000000000e+02	6.422084634479789202e+03
6.170000000000000000e+02	6.512218543913133544e+03
6.180000000000000000e+02	6.601791068282506785e+03
6.190000000000000000e+02	6.690744597708679066e+03
6.200000000000000000e+02	6.779021255123849187e+03
6.210000000000000000e+02	6.866562957127781374e+03
6.220000000000000000e+02	6.953311475942526158e+03
6.230000000000000000e+02	7.039208502376718570e+03
6.240000000000000000e+02	7.124195709707339120e+03
6.250000000000000000e+02	7.208214818383885358e+03
6.260000000000000000e+02	7.291207661457086033e+03
6.270000000000000000e+02	7.373116250631686853e+03
6.280000000000000000e+02	7.453882842840431294e+03
6.290000000000000000e+02	7.533450007234137956e+03
6.300000000000000000e+02	7.611760692480783291e+03
6.310000000000000000e+02	7.688758294264697724e+03
6.320000000000000000e+02	7.764386722875412488e+03
6.330000000000000000e+02	7.838590470774375717e+03
6.340000000000000000e+02	7.911314680026634051e+03
6.350000000000000000e+02	7.982505209483718318e+03
6.360000000000000000e+02	8.052108701603365262e+03
6.370000000000000000e+02	8.120072648791307074e+03
6.380000000000000000e+02	8.186345459150283205e+03
6.390000000000000000e+02	8.250876521521518953e+03
6.400000000000000000e+02	8.313616269704343722e+03
6.410000000000000000e+02	8.374516245740242084e+03
6.420000000000000000e+02	8.433529162148572141e+03
6.430000000000000000e+02	8.490608963002292512e+03
6.440000000000000000e+02	8.545710883733523588e+03
6.450000000000000000e+02	8.598791509560409395e+03
6.460000000000000000e+02	8.649808832428670939e+03
6.470000000000000000e+02	8.698722306363431926e+03
6.480000000000000000e+02	8.745492901129333404e+03
6.490000000000000000e+02	8.790083154099580497e+03
6.500000000000000000e+02	8.832457220237523870e+03
6.510000000000000000e+02	8.872580920097427224e+03
6.520000000000000000e+02	8.910421785754540906e+03
6.530000000000000000e+02	8.945949104578050537e+03
6.540000000000000000e+02	8.979133960764345829e+03
6.550000000000000000e+02	9.009949274551994677e+03
6.560000000000000000e+02	9.038369839043958564e+03
6.570000000000000000e+02	9.064372354567027287e+03
6.580000000000000000e+02	9.087935460502831120e+03
6.590000000000000000e+02	9.109039764529636159e+03
6.600000000000000000e+02	9.127667869218837950e+03
6.610000000000000000e+02	9.143804395935119828e+03
6.620000000000000000e+02	9.157436005994286461e+03
6.630000000000000000e+02	9.168551419038065433e+03
6.640000000000000000e+02	9.177141428590384749e+03
6.650000000000000000e+02	9.183198914765165682e+03
6.660000000000000000e+02	9.186718854101001853e+03
6.670000000000000000e+02	9.187698326503781573e+03
6.680000000000000000e+02	9.186136519283751113e+03
6.690000000000000000e+02	9.182034728279264527e+03
6.700000000000000000e+02	9.175396356065004511e+03
6.710000000000000000e+02	9.166226907248174030e+03
6.720000000000000000e+02	9.154533980861722739e+03
6.730000000000000000e+02	9.140327259869372938e+03
6.740000000000000000e+02	9.123618497802683123e+03
6.750000000000000000e+02	9.104421502556011546e+03
6.760000000000000000e+02	9.082752117370622727e+03
6.770000000000000000e+02	9.058628199044609573e+03
6.780000000000000000e+02	9.032069593410593370e+03
6.790000000000000000e+02	9.003098108128320746e+03
6.800000000000000000e+02	8.971737482844382612e+03
6.810000000000000000e+02	8.938013356776227738e+03
6.820000000000000000e+02	8.901953233782391180e+03
6.830000000000000000e+02	8.863586444985585331e+03
6.840000000000000000e+02	8.822944109019732423e+03
6.850000000000000000e+02	8.780059089976337418e+03
6.860000000000000000e+02	8.734965953129776608e+03
6.870000000000000000e+02	8.687700918524928056e+03
6.880000000000000000e+02	8.638301812514400808e+03
6.890000000000000000e+02	8.586808017336052217e+03
6.900000000000000000e+02	8.533260418824873341e+03
6.910000000000000000e+02	8.477701352356303687e+03
6.920000000000000000e+02	8.420174547121012438e+03
6.930000000000000000e+02	8.360725068833644400e+03
6.940000000000000000e+02	8.299399260980528197e+03
6.950000000000000000e+02	8.236244684713383322e+03
6.960000000000000000e+02	8.171310057497968955e+03
6.970000000000000000e+02	8.104645190628229102e+03
6.980000000000000000e+02	8.036300925717836435e+03
6.990000000000000000e+02	7.966329070282163229e+03
7.000000000000000000e+02	7.894782332524546291e+03
7.010000000000000000e+02	7.821714255441283967e+03
7.020000000000000000e+02	7.747179150360182575e+03
7.030000000000000000e+02	7.671232030027474138e+03
7.040000000000000000e+02	7.593928541357840913e+03
7.050000000000000000e+02	7.515324897961763781e+03
7.060000000000000000e+02	7.435477812563799489e+03
7.070000000000000000e+02	7.354444429424448572e+03
7.080000000000000000e+02	7.272282256877116197e+03
7.090000000000000000e+02	7.189049100090290267e+03
7.100000000000000000e+02	7.104802994163423136e+03
7.110000000000000000e+02	7.019602137663185204e+03
7.120000000000000000e+02	6.933504826704695006e+03
7.130000000000000000e+02	6.846569389680061249e+03
7.140000000000000000e+02	6.758854122734135672e+03
7.150000000000000000e+02	6.670417226084707181e+03
7.160000000000000000e+02	6.581316741281537361e+03
7.170000000000000000e+02	6.491610489495665206e+03
7.180000000000000000e+02	6.401356010927188436e+03
7.190000000000000000e+02	6.310610505416480009e+03
7.200000000000000000e+02	6.219430774340274183e+03
7.210000000000000000e+02	6.127873163870516692e+03
7.220000000000000000e+02	6.035993509670119238e+03
7.230000000000000000e+02	5.943847083095979542e+03
7.240000000000000000e+02	5.851488538975660958e+03
7.250000000000000000e+02	5.758971865020150290e+03
7.260000000000000000e+02	5.666350332931003322e+03
7.270000000000000000e+02	5.573676451256063956e+03
7.280000000000000000e+02	5.481001920043683640e+03
7.290000000000000000e+02	5.388377587341185972e+03
7.300000000000000000e+02	5.295853407578977567e+03
7.310000000000000000e+02	5.203478401877443503e+03
7.320000000000000000e+02	5.111300620309438273e+03
7.330000000000000000e+02	5.019367106146859442e+03
7.340000000000000000e+02	4.927723862115525662e+03
7.350000000000000000e+02	4.836415818678260621e+03
7.360000000000000000e+02	4.745486804361868963e+03
7.370000000000000000e+02	4.654979518139467473e+03
7.380000000000000000e+02	4.564935503875497488e+03
7.390000000000000000e+02	4.475395126836640884e+03
7.400000000000000000e+02	4.386397552267835636e+03
7.410000000000000000e+02	4.297980726028671597e+03
7.420000000000000000e+02	4.210181357281543569e+03
7.430000000000000000e+02	4.123034903219231637e+03
7.440000000000000000e+02	4.036575555815868938e+03
7.450000000000000000e+02	3.950836230581729069e+03
7.460000000000000000e+02	3.865848557298835658e+03
7.470000000000000000e+02	3.781642872711062864e+03
7.480000000000000000e+02	3.698248215139220974e+03
7.490000000000000000e+02	3.615692320988563552e+03
7.500000000000000000e+02	3.534001623113225378e+03
7.510000000000000000e+02	3.453201250999340118e+03
7.520000000000000000e+02	3.373315032725939091e+03
7.530000000000000000e+02	3.294365498660250978e+03
7.540000000000000000e+02	3.216373886841704007e+03
7.550000000000000000e+02	3.139360150006721142e+03
7.560000000000000000e+02	3.063342964204415694e+03
7.570000000000000000e+02	2.988339738951384334e+03
7.580000000000000000e+02	2.914366628872115598e+03
7.590000000000000000e+02	2.841438546769965797e+03
7.600000000000000000e+02	2.769569178072247269e+03
7.610000000000000000e+02	2.698770996591777930e+03
7.620000000000000000e+02	2.629055281546091010e+03
7.630000000000000000e+02	2.560432135774658036e+03
7.640000000000000000e+02	2.492910505093641859e+03
7.650000000000000000e+02	2.426498198727113504e+03
7.660000000000000000e+02	2.361201910753173252e+03
7.670000000000000000e+02	2.297027242503115758e+03
7.680000000000000000e+02	2.233978725851579384e+03
7.690000000000000000e+02	2.172059847335583981e+03
7.700000000000000000e+02	2.111273073040462805e+03
7.710000000000000000e+02	2.051619874190921109e+03
7.720000000000000000e+02	1.993100753385806911e+03
7.730000000000000000e+02	1.935715271415675943e+03
7.740000000000000000e+02	1.879462074602797884e+03
7.750000000000000000e+02	1.824338922604023310e+03
7.760000000000000000e+02	1.770342716617697988e+03
7.770000000000000000e+02	1.717469527936780196e+03
7.780000000000000000e+02	1.665714626791322644e+03
7.790000000000000000e+02	1.615072511424622007e+03
7.800000000000000000e+02	1.565536937348528681e+03
7.810000000000000000e+02	1.517100946724722007e+03
7.820000000000000000e+02	1.469756897820107724e+03
7.830000000000000000e+02	1.423496494485957101e+03
7.840000000000000000e+02	1.378310815611892849e+03
7.850000000000000000e+02	1.334190344507405598e+03
7.860000000000000000e+02	1.291124998165204033e+03
7.870000000000000000e+02	1.249104156362370759e+03
7.880000000000000000e+02	1.208116690557004858e+03
7.890000000000000000e+02	1.168150992539786330e+03
7.900000000000000000e+02	1.129195002801673809e+03
7.910000000000000000e+02	1.091236238580765303e+03
7.920000000000000000e+02	1.054261821553158143e+03
7.930000000000000000e+02	1.018258505134525308e+03
7.940000000000000000e+02	9.832127013609346022e+02
7.950000000000000000e+02	9.491105073193473345e+02
7.960000000000000000e+02	9.159377311000573627e+02
7.970000000000000000e+02	8.836799172452136872e+02
7.980000000000000000e+02	8.523223716694111545e+02
7.990000000000000000e+02	8.218501860301817032e+02
8.000000000000000000e+02	7.922482615280329128e+02
8.010000000000000000e+02	7.635013321174901648e+02
8.020000000000000000e+02	7.355939871123862304e+02
8.030000000000000000e+02	7.085106931703707005e+02
8.040000000000000000e+02	6.822358156433662089e+02
8.050000000000000000e+02	6.567536392823640199e+02
8.060000000000000000e+02	6.320483882866054728e+02
8.070000000000000000e+02	6.081042456888271772e+02
8.080000000000000000e+02	5.849053720697930885e+02
8.090000000000000000e+02	5.624359235968827306e+02
8.100000000000000000e+02	5.406800693829828788e+02
8.110000000000000000e+02	5.196220081633528025e+02
8.120000000000000000e+02	4.992459842895290762e+02
8.130000000000000000e+02	4.795363030406680878e+02
8.140000000000000000e+02	4.604773452539873801e+02
8.150000000000000000e+02	4.420535812772218947e+02
8.160000000000000000e+02	4.242495842471561218e+02
8.170000000000000000e+02	4.070500426994271379e+02
8.180000000000000000e+02	3.904397725158510184e+02
8.190000000000000000e+02	3.744037282165269858e+02
8.200000000000000000e+02	3.589270136049256621e+02
8.210000000000000000e+02	3.439948917750641613e+02
8.220000000000000000e+02	3.295927944906994185e+02
8.230000000000000000e+02	3.157063309472602555e+02
8.240000000000000000e+02	3.023212959279606480e+02
8.250000000000000000e+02	2.894236773662043447e+02
8.260000000000000000e+02	2.769996633270154689e+02
8.270000000000000000e+02	2.650356484207812287e+02
8.280000000000000000e+02	2.535182396631138886e+02
8.290000000000000000e+02	2.424342617950904923e+02
8.300000000000000000e+02	2.317707620785380698e+02
8.310000000000000000e+02	2.215150145813942402e+02
8.320000000000000000e+02	2.116545239684775765e+02
8.330000000000000000e+02	2.021770288132708515e+02
8.340000000000000000e+02	1.930705044465374840e+02
8.350000000000000000e+02	1.843231653577637417e+02
8.360000000000000000e+02	1.759234671655527222e+02
8.370000000000000000e+02	1.678601081731907243e+02
8.380000000000000000e+02	1.601220305256520646e+02
8.390000000000000000e+02	1.526984209843296867e+02
8.400000000000000000e+02	1.455787113357531268e+02
8.410000000000000000e+02	1.387525784505020567e+02
8.420000000000000000e+02	1.322099440084373896e+02
8.430000000000000000e+02	1.259409739062472084e+02
8.440000000000000000e+02	1.199360773631657935e+02
8.450000000000000000e+02	1.141859057405416280e+02
8.460000000000000000e+02	1.086813510907338411e+02
8.470000000000000000e+02	1.034135444505907060e+02
8.480000000000000000e+02	9.837385389451691253e+01
8.490000000000000000e+02	9.355388236186929873e+01
8.500000000000000000e+02	8.894546527313596584e+01
8.510000000000000000e+02	8.454066794904663595e+01
8.520000000000000000e+02	8.033178284644677092e+01
8.530000000000000000e+02	7.631132662443171455e+01
8.540000000000000000e+02	7.247203705389290462e+01
8.550000000000000000e+02	6.880686978326851033e+01
8.560000000000000000e+02	6.530899497292662659e+01
8.570000000000000000e+02	6.197179381023074995e+01
8.580000000000000000e+02	5.878885491695623955e+01
8.590000000000000000e+02	5.575397066033733751e+01
8.600000000000000000e+02	5.286113337863206851e+01
8.610000000000000000e+02	5.010453153169375895e+01
8.620000000000000000e+02	4.747854578664229308e+01
8.630000000000000000e+02	4.497774504832605658e+01
8.640000000000000000e+02	4.259688244386574496e+01
8.650000000000000000e+02	4.033089127017388620e+01
8.660000000000000000e+02	3.817488091294367081e+01
8.670000000000000000e+02	3.612413274520902462e+01
8.680000000000000000e+02	3.417409601318356493e+01
8.690000000000000000e+02	3.232038371670162746e+01
8.700000000000000000e+02	3.055876849120072691e+01
8.710000000000000000e+02	2.888517849780856395e+01
8.720000000000000000e+02	2.729569332772805268e+01
8.730000000000000000e+02	2.578653992674938067e+01
8.740000000000000000e+02	2.435408854536214918e+01
8.750000000000000000e+02	2.299484871959201371e+01
8.760000000000000000e+02	2.170546528734621816e+01
8.770000000000000000e+02	2.048271444471943781e+01
8.780000000000000000e+02	1.932349984638966944e+01
8.790000000000000000e+02	1.822484875391911530e+01
8.800000000000000000e+02	1.718390823547053259e+01
8.810000000000000000e+02	1.619794142015535243e+01
8.820000000000000000e+02	1.526432380994392624e+01
8.830000000000000000e+02	1.438053965179346250e+01
8.840000000000000000e+02	1.354417837238410449e+01
8.850000000000000000e+02	1.275293107759826761e+01
8.860000000000000000e+02	1.200458711863354111e+01
8.870000000000000000e+02	1.129703072640434769e+01
8.880000000000000000e+02	1.062823771566315934e+01
8.890000000000000000e+02	9.996272260057047276e+00
8.900000000000000000e+02	9.399283739130636306e+00
8.910000000000000000e+02	8.835503658091914403e+00
8.920000000000000000e+02	8.303242640972204214e+00
8.930000000000000000e+02	7.800887497635967449e+00
8.940000000000000000e+02	7.326898364930616303e+00
8.950000000000000000e+02	6.879805922109719418e+00
8.960000000000000000e+02	6.458208680515320488e+00
8.970000000000000000e+02	6.060770347367153477e+00
8.980000000000000000e+02	5.686217263376261322e+00
8.990000000000000000e+02	5.333335913779651882e+00
9.000000000000000000e+02	5.000970512279385716e+00
9.010000000000000000e+02	4.688020657265014712e+00
9.020000000000000000e+02	4.393439059600817487e+00
9.030000000000000000e+02	4.116229341170001277e+00
9.040000000000000000e+02	3.855443903285837415e+00
9.050000000000000000e+02	3.610181864004473162e+00
9.060000000000000000e+02	3.379587063305836026e+00
9.070000000000000000e+02	3.162846135047218343e+00
9.080000000000000000e+02	2.959186644538619682e+00
9.090000000000000000e+02	2.767875290539186128e+00
9.100000000000000000e+02	2.588216170430453378e+00
9.110000000000000000e+02	2.419549107283618827e+00
9.120000000000000000e+02	2.261248037504913544e+00
9.130000000000000000e+02	2.112719457715006577e+00
9.140000000000000000e+02	1.973400929494922629e+00
9.150000000000000000e+02	1.842759640611792094e+00
9.160000000000000000e+02	1.720291021323082425e+00
9.170000000000000000e+02	1.605517414347030103e+00
9.180000000000000000e+02	1.497986797079902344e+00
9.190000000000000000e+02	1.397271554637108615e+00
9.200000000000000000e+02	1.302967302294858909e+00
9.210000000000000000e+02	1.214691755911814885e+00
9.220000000000000000e+02	1.132083648915723550e+00
9.230000000000000000e+02	1.054801694448349147e+00
9.240000000000000000e+02	9.825235912726258958e-01
9.250000000000000000e+02	9.149450720589229480e-01
9.260000000000000000e+02	8.517789926823760016e-01
9.270000000000000000e+02	7.927544611801032870e-01
9.280000000000000000e+02	7.376160050357775111e-01
9.290000000000000000e+02	6.861227754792847966e-01
9.300000000000000000e+02	6.380477875107117836e-01
9.310000000000000000e+02	5.931771943809001080e-01
9.320000000000000000e+02	5.513095952846783776e-01
9.330000000000000000e+02	5.122553750479226231e-01
9.340000000000000000e+02	4.758360746153781906e-01
9.350000000000000000e+02	4.418837911727535595e-01
9.360000000000000000e+02	4.102406067637096032e-01
9.370000000000000000e+02	3.807580442900999618e-01
9.380000000000000000e+02	3.532965498118385561e-01
9.390000000000000000e+02	3.277250000911817174e-01
9.400000000000000000e+02	3.039202343547885432e-01
9.410000000000000000e+02	2.817666092756765939e-01
9.420000000000000000e+02	2.611555762059640795e-01
9.430000000000000000e+02	2.419852797200459094e-01
9.440000000000000000e+02	2.241601765565677251e-01
9.450000000000000000e+02	2.075906740760639357e-01
9.460000000000000000e+02	1.921927873794660180e-01
9.470000000000000000e+02	1.778878142607677737e-01
9.480000000000000000e+02	1.646020271948807623e-01
9.490000000000000000e+02	1.522663815891362460e-01
9.500000000000000000e+02	1.408162395539120648e-01
9.510000000000000000e+02	1.301911084744575842e-01
9.520000000000000000e+02	1.203343936921252577e-01
9.530000000000000000e+02	1.111931646288753101e-01
9.540000000000000000e+02	1.027179337140572413e-01
9.550000000000000000e+02	9.486244749708158674e-02
9.560000000000000000e+02	8.758348935364920762e-02
9.570000000000000000e+02	8.084069321669780372e-02
9.580000000000000000e+02	7.459636778613321084e-02
9.590000000000000000e+02	6.881533069372927636e-02
9.600000000000000000e+02	6.346475212130192611e-02
9.610000000000000000e+02	5.851400739137483514e-02
9.620000000000000000e+02	5.393453807006176604e-02
9.630000000000000000e+02	4.969972114178417000e-02
9.640000000000000000e+02	4.578474583472644938e-02
9.650000000000000000e+02	4.216649769460791702e-02
9.660000000000000000e+02	3.882344952241543329e-02
9.670000000000000000e+02	3.573555880921067129e-02
9.680000000000000000e+02	3.288417131799187265e-02
9.690000000000000000e+02	3.025193047887472092e-02
9.700000000000000000e+02	2.782269227954991056e-02
9.710000000000000000e+02	2.558144534810451870e-02
9.720000000000000000e+02	2.351423593985241603e-02
9.730000000000000000e+02	2.160809755382925995e-02
9.740000000000000000e+02	1.985098491807150284e-02
9.750000000000000000e+02	1.823171209573376181e-02
9.760000000000000000e+02	1.673989447651466275e-02
9.770000000000000000e+02	1.536589442976991730e-02
9.780000000000000000e+02	1.410077040710599507e-02
9.790000000000000000e+02	1.293622929318146222e-02
9.800000000000000000e+02	1.186458181391031146e-02
9.810000000000000000e+02	1.087870082127144478e-02
9.820000000000000000e+02	9.971982283501266628e-03
9.830000000000000000e+02	9.138308818588229687e-03
9.840000000000000000e+02	8.372015617718780653e-03
9.850000000000000000e+02	7.667858613652603177e-03
9.860000000000000000e+02	7.020984756948080684e-03
9.870000000000000000e+02	6.426904270527467392e-03
9.880000000000000000e+02	5.881464760279751791e-03
9.890000000000000000e+02	5.380827066260958011e-03
9.900000000000000000e+02	4.921442745578405269e-03
9.910000000000000000e+02	4.500033084250953073e-03
9.920000000000000000e+02	4.113569541233861628e-03
9.930000000000000000e+02	3.759255533396109808e-03
9.940000000000000000e+02	3.434509475552357128e-03
9.950000000000000000e+02	3.136948994693576284e-03
9.960000000000000000e+02	2.864376242339111960e-03
9.970000000000000000e+02	2.614764233462353506e-03
9.980000000000000000e+02	2.386244144730732212e-03
9.990000000000000000e+02	2.177093508860769230e-03
1.000000000000000000e+03	1.985725245729259673e-03
