4.410000000000000000e+02	1.017732716082544719e+01
4.420000000000000000e+02	1.069944767404028774e+01
4.430000000000000000e+02	1.124585391742093776e+01
4.440000000000000000e+02	1.181753701923891775e+01
4.450000000000000000e+02	1.241552132368168060e+01
4.460000000000000000e+02	1.304086514559382337e+01
4.470000000000000000e+02	1.369466152479325416e+01
4.480000000000000000e+02	1.437803897890962013e+01
4.490000000000000000e+02	1.509216225364171571e+01
4.500000000000000000e+02	1.583823306927913421e+01
4.510000000000000000e+02	1.661749086228144989e+01
4.520000000000000000e+02	1.743121352065659480e+01
4.530000000000000000e+02	1.828071811182688222e+01
4.540000000000000000e+02	1.916736160161908487e+01
4.550000000000000000e+02	2.009254156296180227e+01
4.560000000000000000e+02	2.105769687282068148e+01
4.570000000000000000e+02	2.206430839584940884e+01
4.580000000000000000e+02	2.311389965318180728e+01
4.590000000000000000e+02	2.420803747473835799e+01
4.600000000000000000e+02	2.534833263336849285e+01
4.610000000000000000e+02	2.653644045909956262e+01
4.620000000000000000e+02	2.777406143171187480e+01
4.630000000000000000e+02	2.906294174981124456e+01
4.640000000000000000e+02	3.040487387452004597e+01
4.650000000000000000e+02	3.180169704586222323e+01
4.660000000000000000e+02	3.325529776987034580e+01
4.670000000000000000e+02	3.476761027439869878e+01
4.680000000000000000e+02	3.634061693158310646e+01
4.690000000000000000e+02	3.797634864484732731e+01
4.700000000000000000e+02	3.967688519831557414e+01
4.710000000000000000e+02	4.144435556645506580e+01
4.720000000000000000e+02	4.328093818173536533e+01
4.730000000000000000e+02	4.518886115806115100e+01
4.740000000000000000e+02	4.717040246770294942e+01
4.750000000000000000e+02	4.922789006942484491e+01
4.760000000000000000e+02	5.136370198548319621e+01
4.770000000000000000e+02	5.358026632514978616e+01
4.780000000000000000e+02	5.588006125239517985e+01
4.790000000000000000e+02	5.826561489535461646e+01
4.800000000000000000e+02	6.073950519519465274e+01
4.810000000000000000e+02	6.330435969205048252e+01
4.820000000000000000e+02	6.596285524617859153e+01
4.830000000000000000e+02	6.871771769611812886e+01
4.840000000000000000e+02	7.157172148126642242e+01
4.850000000000000000e+02	7.452768942155070420e+01
4.860000000000000000e+02	7.758849382619237645e+01
4.870000000000000000e+02	8.075706542324850545e+01
4.880000000000000000e+02	8.403644304578547519e+01
4.890000000000000000e+02	8.743001704648145278e+01
4.900000000000000000e+02	9.094261561359905954e+01
4.910000000000000000e+02	9.458494469540571004e+01
4.920000000000000000e+02	9.839020150695500888e+01
4.930000000000000000e+02	1.024708809040835149e+02
4.940000000000000000e+02	1.071957835993529500e+02
4.950000000000000000e+02	1.136908039178629224e+02
4.960000000000000000e+02	1.251189021783450528e+02
4.970000000000000000e+02	1.496146427464308033e+02
4.980000000000000000e+02	2.062545692930843302e+02
4.990000000000000000e+02	3.356475256597460088e+02
5.000000000000000000e+02	6.157795051516716285e+02
5.010000000000000000e+02	1.180522759288990528e+03
5.020000000000000000e+02	2.232241361399921516e+03
5.030000000000000000e+02	4.032989590340725044e+03
5.040000000000000000e+02	6.856172718401679049e+03
5.050000000000000000e+02	1.088953265319029742e+04
5.060000000000000000e+02	1.610474941292734002e+04
5.070000000000000000e+02	2.214176665343351124e+04
5.080000000000000000e+02	2.827701347107776019e+04
5.090000000000000000e+02	3.353050781152780110e+04
5.100000000000000000e+02	3.691007810661967233e+04
5.110000000000000000e+02	3.771504357351522049e+04
5.120000000000000000e+02	3.577304990834862110e+04
5.130000000000000000e+02	3.150060810283434694e+04
5.140000000000000000e+02	2.575827115119080554e+04
5.150000000000000000e+02	1.956929393377120141e+04
5.160000000000000000e+02	1.382742677444440415e+04
5.170000000000000000e+02	9.105877507396073270e+03
5.180000000000000000e+02	5.613217463175474222e+03
5.190000000000000000e+02	3.269410119803179441e+03
5.200000000000000000e+02	1.835551210261567121e+03
5.210000000000000000e+02	1.034032957752997618e+03
5.220000000000000000e+02	6.249670305835127238e+02
5.230000000000000000e+02	4.357209733046339011e+02
5.240000000000000000e+02	3.583666959150837101e+02
5.250000000000000000e+02	3.330487065238186801e+02
5.260000000000000000e+02	3.299652490991981040e+02
5.270000000000000000e+02	3.356934137508877711e+02
5.280000000000000000e+02	3.447362205020675674e+02
5.290000000000000000e+02	3.550400086272267686e+02
5.300000000000000000e+02	3.659037586751883282e+02
5.310000000000000000e+02	3.771093094329549444e+02
5.320000000000000000e+02	3.885956784212329467e+02
5.330000000000000000e+02	4.003486333090797871e+02
5.340000000000000000e+02	4.123666344280046019e+02
5.350000000000000000e+02	4.246512473508171865e+02
5.360000000000000000e+02	4.372046709170217014e+02
5.370000000000000000e+02	4.500291498581446490e+02
5.380000000000000000e+02	4.631268433538807585e+02
5.390000000000000000e+02	4.764997945516921050e+02
5.400000000000000000e+02	4.901499205806364330e+02
5.410000000000000000e+02	5.040790063794964908e+02
5.420000000000000000e+02	5.182886991755505051e+02
5.430000000000000000e+02	5.327805030682121696e+02
5.440000000000000000e+02	5.475557736362615060e+02
5.450000000000000000e+02	5.626157125631341387e+02
5.460000000000000000e+02	5.779613622862045759e+02
5.470000000000000000e+02	5.935936006777396869e+02
5.480000000000000000e+02	6.095131357655521924e+02
5.490000000000000000e+02	6.257205005015731558e+02
5.500000000000000000e+02	6.422160475867044624e+02
5.510000000000000000e+02	6.589999443604598355e+02
5.520000000000000000e+02	6.760721677640166263e+02
5.530000000000000000e+02	6.934324993854202148e+02
5.540000000000000000e+02	7.110805205957823318e+02
5.550000000000000000e+02	7.290156077853964689e+02
5.560000000000000000e+02	7.472369277087732371e+02
5.570000000000000000e+02	7.657434329476525363e+02
5.580000000000000000e+02	7.845338575010895283e+02
5.590000000000000000e+02	8.036067125117521073e+02
5.600000000000000000e+02	8.229602821375644908e+02
5.610000000000000000e+02	8.425926195778409920e+02
5.620000000000000000e+02	8.625015432630253827e+02
5.630000000000000000e+02	8.826846332171178346e+02
5.640000000000000000e+02	9.031392276018189023e+02
5.650000000000000000e+02	9.238624194513456587e+02
5.660000000000000000e+02	9.448510536067827843e+02
5.670000000000000000e+02	9.661017238587332940e+02
5.680000000000000000e+02	9.876107703068955743e+02
5.690000000000000000e+02	1.009374276945060274e+03
5.700000000000000000e+02	1.031388069479848809e+03
5.710000000000000000e+02	1.053647713391340631e+03
5.720000000000000000e+02	1.076148512243533105e+03
5.730000000000000000e+02	1.098885506252358482e+03
5.740000000000000000e+02	1.121853471118744437e+03
5.750000000000000000e+02	1.145046917133958459e+03
5.760000000000000000e+02	1.168460088564180069e+03
5.770000000000000000e+02	1.192086963320980431e+03
5.780000000000000000e+02	1.215921252924051259e+03
5.790000000000000000e+02	1.239956402762217294e+03
5.800000000000000000e+02	1.264185592658405312e+03
5.810000000000000000e+02	1.288601737743889089e+03
5.820000000000000000e+02	1.313197489646743634e+03
5.830000000000000000e+02	1.337965237999049577e+03
5.840000000000000000e+02	1.362897112266973181e+03
5.850000000000000000e+02	1.387984983907416108e+03
5.860000000000000000e+02	1.413220468854502542e+03
5.870000000000000000e+02	1.438594930338686936e+03
5.880000000000000000e+02	1.464099482040823204e+03
5.890000000000000000e+02	1.489724991583035944e+03
5.900000000000000000e+02	1.515462084357741332e+03
5.910000000000000000e+02	1.541301147695666941e+03
5.920000000000000000e+02	1.567232335373188789e+03
5.930000000000000000e+02	1.593245572458794413e+03
5.940000000000000000e+02	1.619330560497925944e+03
5.950000000000000000e+02	1.645476783034929440e+03
5.960000000000000000e+02	1.671673511470283074e+03
5.970000000000000000e+02	1.697909811250707207e+03
5.980000000000000000e+02	1.724174548389226857e+03
5.990000000000000000e+02	1.750456396311657500e+03
6.000000000000000000e+02	1.776743843025449451e+03
6.010000000000000000e+02	1.803025198606236245e+03
6.020000000000000000e+02	1.829288602996869940e+03
6.030000000000000000e+02	1.855522034113163272e+03
6.040000000000000000e+02	1.881713316249978561e+03
6.050000000000000000e+02	1.907850128780753721e+03
6.060000000000000000e+02	1.933920015142984766e+03
6.070000000000000000e+02	1.959910392101637626e+03
6.080000000000000000e+02	1.985808559281905445e+03
6.090000000000000000e+02	2.011601708962201883e+03
6.100000000000000000e+02	2.037276936117730429e+03
6.110000000000000000e+02	2.062821248704468417e+03
6.120000000000000000e+02	2.088221578172877798e+03
6.130000000000000000e+02	2.113464790200174775e+03
6.140000000000000000e+02	2.138537695629481732e+03
6.150000000000000000e+02	2.163427061603752463e+03
6.160000000000000000e+02	2.188119622881870328e+03
6.170000000000000000e+02	2.212602093323908321e+03
6.180000000000000000e+02	2.236861177532118290e+03
6.190000000000000000e+02	2.260883582633809056e+03
6.200000000000000000e+02	2.284656030191901664e+03
6.210000000000000000e+02	2.308165268228596233e+03
6.220000000000000000e+02	2.331398083347241936e+03
6.230000000000000000e+02	2.354341312937190651e+03
6.240000000000000000e+02	2.376981857446137838e+03
6.250000000000000000e+02	2.399306692704171837e+03
6.260000000000000000e+02	2.421302882283535837e+03
6.270000000000000000e+02	2.442957589877878036e+03
6.280000000000000000e+02	2.464258091684588180e+03
6.290000000000000000e+02	2.485191788773669487e+03
6.300000000000000000e+02	2.505746219426444441e+03
6.310000000000000000e+02	2.525909071427318850e+03
6.320000000000000000e+02	2.545668194291740747e+03
6.330000000000000000e+02	2.565011611413446644e+03
6.340000000000000000e+02	2.583927532114092173e+03
6.350000000000000000e+02	2.602404363578369612e+03
6.360000000000000000e+02	2.620430722657762544e+03
6.370000000000000000e+02	2.637995447526173393e+03
6.380000000000000000e+02	2.655087609170769611e+03
6.390000000000000000e+02	2.671696522701525737e+03
6.400000000000000000e+02	2.687811758463118622e+03
6.410000000000000000e+02	2.703423152933026358e+03
6.420000000000000000e+02	2.718520819389919779e+03
6.430000000000000000e+02	2.733095158336688201e+03
6.440000000000000000e+02	2.747136867662736222e+03
6.450000000000000000e+02	2.760636952530508552e+03
6.460000000000000000e+02	2.773586734971543592e+03
6.470000000000000000e+02	2.785977863177730796e+03
6.480000000000000000e+02	2.797802320473865166e+03
6.490000000000000000e+02	2.809052433957996527e+03
6.500000000000000000e+02	2.819720882796554633e+03
6.510000000000000000e+02	2.829800706161691778e+03
6.520000000000000000e+02	2.839285310798800765e+03
6.530000000000000000e+02	2.848168478212699483e+03
6.540000000000000000e+02	2.856444371461507217e+03
6.550000000000000000e+02	2.864107541547836263e+03
6.560000000000000000e+02	2.871152933397490415e+03
6.570000000000000000e+02	2.877575891416502145e+03
6.580000000000000000e+02	2.883372164617941053e+03
6.590000000000000000e+02	2.888537911310605068e+03
6.600000000000000000e+02	2.893069703342344383e+03
6.610000000000000000e+02	2.896964529891462917e+03
6.620000000000000000e+02	2.900219800800326539e+03
6.630000000000000000e+02	2.902833349446007105e+03
6.640000000000000000e+02	2.904803435143516253e+03
6.650000000000000000e+02	2.906128745077886833e+03
6.660000000000000000e+02	2.906808395762111559e+03
6.670000000000000000e+02	2.906841934018661959e+03
6.680000000000000000e+02	2.906229337483067866e+03
6.690000000000000000e+02	2.904971014628772082e+03
6.700000000000000000e+02	2.903067804313218403e+03
6.710000000000000000e+02	2.900520974845886030e+03
6.720000000000000000e+02	2.897332222579712834e+03
6.730000000000000000e+02	2.893503670028101169e+03
6.740000000000000000e+02	2.889037863510432999e+03
6.750000000000000000e+02	2.883937770329745490e+03
6.760000000000000000e+02	2.878206775486954029e+03
6.770000000000000000e+02	2.871848677936708555e+03
6.780000000000000000e+02	2.864867686390686231e+03
6.790000000000000000e+02	2.857268414674806536e+03
6.800000000000000000e+02	2.849055876647541936e+03
6.810000000000000000e+02	2.840235480687154904e+03
6.820000000000000000e+02	2.830813023756349594e+03
6.830000000000000000e+02	2.820794685053455851e+03
6.840000000000000000e+02	2.810187019259875797e+03
6.850000000000000000e+02	2.798996949394124385e+03
6.860000000000000000e+02	2.787231759283366046e+03
6.870000000000000000e+02	2.774899085663910682e+03
6.880000000000000000e+02	2.762006909922652085e+03
6.890000000000000000e+02	2.748563549491953381e+03
6.900000000000000000e+02	2.734577648910959397e+03
6.910000000000000000e+02	2.720058170566779609e+03
6.920000000000000000e+02	2.705014385129411949e+03
6.930000000000000000e+02	2.689455861694696068e+03
6.940000000000000000e+02	2.673392457649944845e+03
6.950000000000000000e+02	2.656834308277273976e+03
6.960000000000000000e+02	2.639791816109958290e+03
6.970000000000000000e+02	2.622275640057438977e+03
6.980000000000000000e+02	2.604296684314875165e+03
6.990000000000000000e+02	2.585866087073357448e+03
7.000000000000000000e+02	2.566995209047121989e+03
7.010000000000000000e+02	2.547695621834249323e+03
7.020000000000000000e+02	2.527979096127508910e+03
7.030000000000000000e+02	2.507857589792096405e+03
7.040000000000000000e+02	2.487343235827104763e+03
7.050000000000000000e+02	2.466448330227619863e+03
7.060000000000000000e+02	2.445185319764358155e+03
7.070000000000000000e+02	2.423566789697738841e+03
7.080000000000000000e+02	2.401605451443266702e+03
7.090000000000000000e+02	2.379314130205015317e+03
7.100000000000000000e+02	2.356705752593915349e+03
7.110000000000000000e+02	2.333793334247417533e+03
7.120000000000000000e+02	2.310589967466950384e+03
7.130000000000000000e+02	2.287108808889415286e+03
7.140000000000000000e+02	2.263363067208741086e+03
7.150000000000000000e+02	2.239365990963297918e+03
7.160000000000000000e+02	2.215130856404701717e+03
7.170000000000000000e+02	2.190670955463255268e+03
7.180000000000000000e+02	2.165999583824965612e+03
7.190000000000000000e+02	2.141130029134748384e+03
7.200000000000000000e+02	2.116075559340057680e+03
7.210000000000000000e+02	2.090849411188832619e+03
7.220000000000000000e+02	2.065464778895219752e+03
7.230000000000000000e+02	2.039934802986154864e+03
7.240000000000000000e+02	2.014272559341412716e+03
7.250000000000000000e+02	1.988491048439316955e+03
7.260000000000000000e+02	1.962603184819810622e+03
7.270000000000000000e+02	1.936621786776125418e+03
7.280000000000000000e+02	1.910559566285769051e+03
7.290000000000000000e+02	1.884429119191069049e+03
7.300000000000000000e+02	1.858242915638965769e+03
7.310000000000000000e+02	1.832013290789234588e+03
7.320000000000000000e+02	1.805752435799771092e+03
7.330000000000000000e+02	1.779472389097024461e+03
7.340000000000000000e+02	1.753185027939118982e+03
7.350000000000000000e+02	1.726902060278627232e+03
7.360000000000000000e+02	1.700635016931423479e+03
7.370000000000000000e+02	1.674395244057441232e+03
7.380000000000000000e+02	1.648193895958629128e+03
7.390000000000000000e+02	1.622041928198799496e+03
7.400000000000000000e+02	1.595950091049515549e+03
7.410000000000000000e+02	1.569928923265577623e+03
7.420000000000000000e+02	1.543988746193126872e+03
7.430000000000000000e+02	1.518139658212795439e+03
7.440000000000000000e+02	1.492391529519801452e+03
7.450000000000000000e+02	1.466753997242321020e+03
7.460000000000000000e+02	1.441236460898927362e+03
7.470000000000000000e+02	1.415848078195358994e+03
7.480000000000000000e+02	1.390597761160336631e+03
7.490000000000000000e+02	1.365494172619647998e+03
7.500000000000000000e+02	1.340545723007195420e+03
7.510000000000000000e+02	1.315760567511215413e+03
7.520000000000000000e+02	1.291146603553392197e+03
7.530000000000000000e+02	1.266711468598109150e+03
7.540000000000000000e+02	1.242462538288637234e+03
7.550000000000000000e+02	1.218406924906598988e+03
7.560000000000000000e+02	1.194551476150632652e+03
7.570000000000000000e+02	1.170902774229753732e+03
7.580000000000000000e+02	1.147467135266523428e+03
7.590000000000000000e+02	1.124250609004743410e+03
7.600000000000000000e+02	1.101258978816037597e+03
7.610000000000000000e+02	1.078497761999328532e+03
7.620000000000000000e+02	1.055972210366890295e+03
7.630000000000000000e+02	1.033687311110339351e+03
7.640000000000000000e+02	1.011647787939642171e+03
7.650000000000000000e+02	9.898581024879308643e+02
7.660000000000000000e+02	9.683224559746614659e+02
7.670000000000000000e+02	9.470447911194222570e+02
7.680000000000000000e+02	9.260287942984604115e+02
7.690000000000000000e+02	9.052778979358078004e+02
7.700000000000000000e+02	8.847952831206952169e+02
7.710000000000000000e+02	8.645838824427860345e+02
7.720000000000000000e+02	8.446463830366056982e+02
7.730000000000000000e+02	8.249852298264264618e+02
7.740000000000000000e+02	8.056026289627459391e+02
7.750000000000000000e+02	7.865005514414151548e+02
7.760000000000000000e+02	7.676807368963960698e+02
7.770000000000000000e+02	7.491446975570698896e+02
7.780000000000000000e+02	7.308937223609806324e+02
7.790000000000000000e+02	7.129288812128762629e+02
7.800000000000000000e+02	6.952510293809083350e+02
7.810000000000000000e+02	6.778608120208540413e+02
7.820000000000000000e+02	6.607586688192560587e+02
7.830000000000000000e+02	6.439448387464202597e+02
7.840000000000000000e+02	6.274193649102637664e+02
7.850000000000000000e+02	6.111820995020771079e+02
7.860000000000000000e+02	5.952327088253524607e+02
7.870000000000000000e+02	5.795706783989274982e+02
7.880000000000000000e+02	5.641953181258036238e+02
7.890000000000000000e+02	5.491057675191248109e+02
7.900000000000000000e+02	5.343010009769321869e+02
7.910000000000000000e+02	5.197798330974676446e+02
7.920000000000000000e+02	5.055409240269403313e+02
7.930000000000000000e+02	4.915827848318555198e+02
7.940000000000000000e+02	4.779037828881632777e+02
7.950000000000000000e+02	4.645021472796858575e+02
7.960000000000000000e+02	4.513759741984652010e+02
7.970000000000000000e+02	4.385232323398762446e+02
7.980000000000000000e+02	4.259417682855609542e+02
7.990000000000000000e+02	4.136293118674510083e+02
8.000000000000000000e+02	4.015834815063666952e+02
8.010000000000000000e+02	3.898017895189034903e+02
8.020000000000000000e+02	3.782816473865519242e+02
8.030000000000000000e+02	3.670203709812251986e+02
8.040000000000000000e+02	3.560151857416057624e+02
8.050000000000000000e+02	3.452632317949697836e+02
8.060000000000000000e+02	3.347615690193781006e+02
8.070000000000000000e+02	3.245071820413765522e+02
8.080000000000000000e+02	3.144969851645910239e+02
8.090000000000000000e+02	3.047278272248424855e+02
8.100000000000000000e+02	2.951964963676621778e+02
8.110000000000000000e+02	2.858997247443280116e+02
8.120000000000000000e+02	2.768341931227851660e+02
8.130000000000000000e+02	2.679965354100646664e+02
8.140000000000000000e+02	2.593833430830499083e+02
8.150000000000000000e+02	2.509911695246833290e+02
8.160000000000000000e+02	2.428165342629410191e+02
8.170000000000000000e+02	2.348559271101394472e+02
8.180000000000000000e+02	2.271058122003699395e+02
8.190000000000000000e+02	2.195626319230793513e+02
8.200000000000000000e+02	2.122228107510452162e+02
8.210000000000000000e+02	2.050827589612097483e+02
8.220000000000000000e+02	1.981388762470504332e+02
8.230000000000000000e+02	1.913875552213780225e+02
8.240000000000000000e+02	1.848251848086557914e+02
8.250000000000000000e+02	1.784481535261333249e+02
8.260000000000000000e+02	1.722528526532823889e+02
8.270000000000000000e+02	1.662356792892120723e+02
8.280000000000000000e+02	1.603930392979194153e+02
8.290000000000000000e+02	1.547213501414125005e+02
8.300000000000000000e+02	1.492170436009090224e+02
8.310000000000000000e+02	1.438765683864807556e+02
8.320000000000000000e+02	1.386963926356683601e+02
8.330000000000000000e+02	1.336730063017455450e+02
8.340000000000000000e+02	1.288029234324523884e+02
8.350000000000000000e+02	1.240826843401596307e+02
8.360000000000000000e+02	1.195088576645514138e+02
8.370000000000000000e+02	1.150780423290450756e+02
8.380000000000000000e+02	1.107868693922784189e+02
8.390000000000000000e+02	1.066320037961102400e+02
8.400000000000000000e+02	1.026101460116824597e+02
8.410000000000000000e+02	9.871803358519093763e+01
8.420000000000000000e+02	9.495244258510308555e+01
8.430000000000000000e+02	9.131018895264683977e+01
8.440000000000000000e+02	8.778812975747169389e+01
8.450000000000000000e+02	8.438316436045704449e+01
8.460000000000000000e+02	8.109223548570901130e+01
8.470000000000000000e+02	7.791233020384524366e+01
8.480000000000000000e+02	7.484048082872348573e+01
8.490000000000000000e+02	7.187376572981648337e+01
8.500000000000000000e+02	6.900931006247871835e+01
8.510000000000000000e+02	6.624428641838771625e+01
8.520000000000000000e+02	6.357591539847344819e+01
8.530000000000000000e+02	6.100146611067629721e+01
8.540000000000000000e+02	5.851825659489457365e+01
8.550000000000000000e+02	5.612365417749929719e+01
8.560000000000000000e+02	5.381507575780433683e+01
8.570000000000000000e+02	5.158998802888805812e+01
8.580000000000000000e+02	4.944590763516361420e+01
8.590000000000000000e+02	4.738040126909380945e+01
8.600000000000000000e+02	4.539108570944038945e+01
8.610000000000000000e+02	4.347562780342665434e+01
8.620000000000000000e+02	4.163174439518026304e+01
8.630000000000000000e+02	3.985720220280455806e+01
8.640000000000000000e+02	3.814981764640555895e+01
8.650000000000000000e+02	3.650745662938055602e+01
8.660000000000000000e+02	3.492803427524422233e+01
8.670000000000000000e+02	3.340951462224082746e+01
8.680000000000000000e+02	3.194991027795782301e+01
8.690000000000000000e+02	3.054728203612170745e+01
8.700000000000000000e+02	2.919973845771991705e+01
8.710000000000000000e+02	2.790543541855343079e+01
8.720000000000000000e+02	2.666257562528346270e+01
8.730000000000000000e+02	2.546940810199320637e+01
8.740000000000000000e+02	2.432422764924073633e+01
8.750000000000000000e+02	2.322537427753304584e+01
8.760000000000000000e+02	2.217123261710458593e+01
8.770000000000000000e+02	2.116023130583454304e+01
8.780000000000000000e+02	2.019084235708811903e+01
8.790000000000000000e+02	1.926158050921663545e+01
8.800000000000000000e+02	1.837100255840000074e+01
8.810000000000000000e+02	1.751770667646406210e+01
8.820000000000000000e+02	1.670033171525262361e+01
8.830000000000000000e+02	1.591755649908166603e+01
8.840000000000000000e+02	1.516809910675100248e+01
8.850000000000000000e+02	1.445071614453510556e+01
8.860000000000000000e+02	1.376420201152282274e+01
8.870000000000000000e+02	1.310738815862224804e+01
8.880000000000000000e+02	1.247914234249518017e+01
8.890000000000000000e+02	1.187836787563291097e+01
8.900000000000000000e+02	1.130400287373345058e+01
8.910000000000000000e+02	1.075501950148900399e+01
8.920000000000000000e+02	1.023042321784132724e+01
8.930000000000000000e+02	9.729252021712905929e+00
8.940000000000000000e+02	9.250575699171744048e+00
8.950000000000000000e+02	8.793495072939347068e+00
8.960000000000000000e+02	8.357141255102900956e+00
8.970000000000000000e+02	7.940674903846042021e+00
8.980000000000000000e+02	7.543285484966014920e+00
8.990000000000000000e+02	7.164190538899873673e+00
9.000000000000000000e+02	6.802634953938095030e+00
9.010000000000000000e+02	6.457890246260696188e+00
9.020000000000000000e+02	6.129253847388777210e+00
9.030000000000000000e+02	5.816048399603222840e+00
9.040000000000000000e+02	5.517621059842539921e+00
9.050000000000000000e+02	5.233342812552618462e+00
9.060000000000000000e+02	4.962607791923902667e+00
9.070000000000000000e+02	4.704832613914615713e+00
9.080000000000000000e+02	4.459455718423569692e+00
9.090000000000000000e+02	4.225936721941857321e+00
9.100000000000000000e+02	4.003755780979770584e+00
9.110000000000000000e+02	3.792412966533635910e+00
9.120000000000000000e+02	3.591427649826518298e+00
9.130000000000000000e+02	3.400337899527654084e+00
9.140000000000000000e+02	3.218699890627083615e+00
9.150000000000000000e+02	3.046087325115043765e+00
9.160000000000000000e+02	2.882090864589927026e+00
9.170000000000000000e+02	2.726317574893846185e+00
9.180000000000000000e+02	2.578390382851461826e+00
9.190000000000000000e+02	2.437947545165221275e+00
9.200000000000000000e+02	2.304642129498971403e+00
9.210000000000000000e+02	2.178141507761741202e+00
9.220000000000000000e+02	2.058126861584330669e+00
9.230000000000000000e+02	1.944292699963357407e+00
9.240000000000000000e+02	1.836346389030349746e+00
9.250000000000000000e+02	1.734007693887503088e+00
9.260000000000000000e+02	1.637008332436671321e+00
9.270000000000000000e+02	1.545091541114102629e+00
9.280000000000000000e+02	1.458011652430289073e+00
9.290000000000000000e+02	1.375533684202076889e+00
9.300000000000000000e+02	1.297432940352828412e+00
9.310000000000000000e+02	1.223494623145927829e+00
9.320000000000000000e+02	1.153513456707256690e+00
9.330000000000000000e+02	1.087293321683360903e+00
9.340000000000000000e+02	1.024646900873970479e+00
9.350000000000000000e+02	9.653953356700997190e-01
9.360000000000000000e+02	9.093678931223710959e-01
9.370000000000000000e+02	8.564016434581599446e-01
9.380000000000000000e+02	8.063411478609149308e-01
9.390000000000000000e+02	7.590381563202700521e-01
9.400000000000000000e+02	7.143513153575105079e-01
9.410000000000000000e+02	6.721458854274382499e-01
9.420000000000000000e+02	6.322934677947219528e-01
9.430000000000000000e+02	5.946717406803841977e-01
9.440000000000000000e+02	5.591642044721377713e-01
9.450000000000000000e+02	5.256599357907947301e-01
9.460000000000000000e+02	4.940533502039797242e-01
9.470000000000000000e+02	4.642439733777465882e-01
9.480000000000000000e+02	4.361362204564898093e-01
9.490000000000000000e+02	4.096391834617414407e-01
9.500000000000000000e+02	3.846664265009098749e-01
9.510000000000000000e+02	3.611357885779233334e-01
9.520000000000000000e+02	3.389691937988320025e-01
9.530000000000000000e+02	3.180924687669173800e-01
9.540000000000000000e+02	2.984351669635356141e-01
9.550000000000000000e+02	2.799303999128727738e-01
9.560000000000000000e+02	2.625146749309874572e-01
9.570000000000000000e+02	2.461277392618943793e-01
9.580000000000000000e+02	2.307124304060291786e-01
9.590000000000000000e+02	2.162145324491931697e-01
9.600000000000000000e+02	2.025826382029911055e-01
9.610000000000000000e+02	1.897680169708374776e-01
9.620000000000000000e+02	1.777244877567940862e-01
9.630000000000000000e+02	1.664082977378035511e-01
9.640000000000000000e+02	1.557780058232909048e-01
9.650000000000000000e+02	1.457943711295873468e-01
9.660000000000000000e+02	1.364202462002097882e-01
9.670000000000000000e+02	1.276204748066489536e-01
9.680000000000000000e+02	1.193617941680037431e-01
9.690000000000000000e+02	1.116127414315322419e-01
9.700000000000000000e+02	1.043435642599330332e-01
9.710000000000000000e+02	9.752613537496541973e-02
9.720000000000000000e+02	9.113387091079833136e-02
9.730000000000000000e+02	8.514165243428506447e-02
9.740000000000000000e+02	7.952575249315839423e-02
9.750000000000000000e+02	7.426376355692435038e-02
9.760000000000000000e+02	6.933453021901189728e-02
9.770000000000000000e+02	6.471808453248280302e-02
9.780000000000000000e+02	6.039558435533028818e-02
9.790000000000000000e+02	5.634925458508390633e-02
9.800000000000000000e+02	5.256233116609031891e-02
9.810000000000000000e+02	4.901900775644765090e-02
9.820000000000000000e+02	4.570438494513320848e-02
9.830000000000000000e+02	4.260442191337603796e-02
9.840000000000000000e+02	3.970589043778201266e-02
9.850000000000000000e+02	3.699633113612034452e-02
9.860000000000000000e+02	3.446401186002119588e-02
9.870000000000000000e+02	3.209788814211137625e-02
9.880000000000000000e+02	2.988756560832933618e-02
9.890000000000000000e+02	2.782326426931050478e-02
9.900000000000000000e+02	2.589578460781120223e-02
9.910000000000000000e+02	2.409647538215432469e-02
9.920000000000000000e+02	2.241720306861816683e-02
9.930000000000000000e+02	2.085032286856237926e-02
9.940000000000000000e+02	1.938865120888347282e-02
9.950000000000000000e+02	1.802543966711845497e-02
9.960000000000000000e+02	1.675435025517120480e-02
9.970000000000000000e+02	1.556943199821789713e-02
9.980000000000000000e+02	1.446509874785827793e-02
9.990000000000000000e+02	1.343610817101789125e-02
1.000000000000000000e+03	1.247754185847291600e-02
