4.410000000000000000e+02	2.074258654491020759e-01
4.420000000000000000e+02	2.210507013193925285e-01
4.430000000000000000e+02	2.355163661749456183e-01
4.440000000000000000e+02	2.508710197445652157e-01
4.450000000000000000e+02	2.671653347433932679e-01
4.460000000000000000e+02	2.844526126280196299e-01
4.470000000000000000e+02	3.027889037667115812e-01
4.480000000000000000e+02	3.222331321405358939e-01
4.490000000000000000e+02	3.428472246911357102e-01
4.500000000000000000e+02	3.646962454306867385e-01
4.510000000000000000e+02	3.878485344290972803e-01
4.520000000000000000e+02	4.123758517927765266e-01
4.530000000000000000e+02	4.383535267483498754e-01
4.540000000000000000e+02	4.658606119433973958e-01
4.550000000000000000e+02	4.949800430747949842e-01
4.560000000000000000e+02	5.257988039533252334e-01
4.570000000000000000e+02	5.584080971110909619e-01
4.580000000000000000e+02	5.929035200557087881e-01
4.590000000000000000e+02	6.293852472724216218e-01
4.600000000000000000e+02	6.679582180719823015e-01
4.610000000000000000e+02	7.087323303785840745e-01
4.620000000000000000e+02	7.518226405480192831e-01
4.630000000000000000e+02	7.973495693018513020e-01
4.640000000000000000e+02	8.454391138584546050e-01
4.650000000000000000e+02	8.962230663364744165e-01
4.660000000000000000e+02	9.498392385004145178e-01
4.670000000000000000e+02	1.006431692911805120e+00
4.680000000000000000e+02	1.066150980542595494e+00
4.690000000000000000e+02	1.129154384900115105e+00
4.700000000000000000e+02	1.195606172705108605e+00
4.710000000000000000e+02	1.265677851155986078e+00
4.720000000000000000e+02	1.339548431803470496e+00
4.730000000000000000e+02	1.417404701050318350e+00
4.740000000000000000e+02	1.499441497280699531e+00
4.750000000000000000e+02	1.585861994613107173e+00
4.760000000000000000e+02	1.676877993259340727e+00
4.770000000000000000e+02	1.772710216460241517e+00
4.780000000000000000e+02	1.873588613956268967e+00
4.790000000000000000e+02	1.979752671938740383e+00
4.800000000000000000e+02	2.091451729421049510e+00
4.810000000000000000e+02	2.208945301013739648e+00
4.820000000000000000e+02	2.332503406509116584e+00
4.830000000000000000e+02	2.462406910648218705e+00
4.840000000000000000e+02	2.598947895219458459e+00
4.850000000000000000e+02	2.742430194765899998e+00
4.860000000000000000e+02	2.893170810743757926e+00
4.870000000000000000e+02	3.051505787193329766e+00
4.880000000000000000e+02	3.217817064367038515e+00
4.890000000000000000e+02	3.392650206256985435e+00
4.900000000000000000e+02	3.577193951861111998e+00
4.910000000000000000e+02	3.775080969472645709e+00
4.920000000000000000e+02	3.998601187095577547e+00
4.930000000000000000e+02	4.288348054323892988e+00
4.940000000000000000e+02	4.769968203293784903e+00
4.950000000000000000e+02	5.803307048789629441e+00
4.960000000000000000e+02	8.337061040007160528e+00
4.970000000000000000e+02	1.466568639998650525e+01
4.980000000000000000e+02	2.986132015600104950e+01
4.990000000000000000e+02	6.412440620354605869e+01
5.000000000000000000e+02	1.359932215711731089e+02
5.010000000000000000e+02	2.756062646516814993e+02
5.020000000000000000e+02	5.260546690992371168e+02
5.030000000000000000e+02	9.397918689013640687e+02
5.040000000000000000e+02	1.567130231709160398e+03
5.050000000000000000e+02	2.436200909767959274e+03
5.060000000000000000e+02	3.528592822255051487e+03
5.070000000000000000e+02	4.760422027548898768e+03
5.080000000000000000e+02	5.981104770818600628e+03
5.090000000000000000e+02	6.998048833485814612e+03
5.100000000000000000e+02	7.624592186774022593e+03
5.110000000000000000e+02	7.735628446455254561e+03
5.120000000000000000e+02	7.308329159272858305e+03
5.130000000000000000e+02	6.429820171235727685e+03
5.140000000000000000e+02	5.268280157641259393e+03
5.150000000000000000e+02	4.020582961779909510e+03
5.160000000000000000e+02	2.858768596642730699e+03
5.170000000000000000e+02	1.894879668486605851e+03
5.180000000000000000e+02	1.172221341298436528e+03
5.190000000000000000e+02	6.785639342411213875e+02
5.200000000000000000e+02	3.697407230042334163e+02
5.210000000000000000e+02	1.922705797543493134e+02
5.220000000000000000e+02	9.845900691244153791e+01
5.230000000000000000e+02	5.289799296676487472e+01
5.240000000000000000e+02	3.270897877110072471e+01
5.250000000000000000e+02	2.474428964981980528e+01
5.260000000000000000e+02	2.220064429186164645e+01
5.270000000000000000e+02	2.188356473097647026e+01
5.280000000000000000e+02	2.242496869984134023e+01
5.290000000000000000e+02	2.328874745455239648e+01
5.300000000000000000e+02	2.428248132253349212e+01
5.310000000000000000e+02	2.534318062658330106e+01
5.320000000000000000e+02	2.645246506089028316e+01
5.330000000000000000e+02	2.760607451592163031e+01
5.340000000000000000e+02	2.880387230259316311e+01
5.350000000000000000e+02	3.004684510244188544e+01
5.360000000000000000e+02	3.133627670370608698e+01
5.370000000000000000e+02	3.267353864153754017e+01
5.380000000000000000e+02	3.406004121065594603e+01
5.390000000000000000e+02	3.549722273863097399e+01
5.400000000000000000e+02	3.698654723189107330e+01
5.410000000000000000e+02	3.852950368326650477e+01
5.420000000000000000e+02	4.012760565514819433e+01
5.430000000000000000e+02	4.178239087393750850e+01
5.440000000000000000e+02	4.349542078845981052e+01
5.450000000000000000e+02	4.526828008365771439e+01
5.460000000000000000e+02	4.710257614723892772e+01
5.470000000000000000e+02	4.899993848793975815e+01
5.480000000000000000e+02	5.096201810422913070e+01
5.490000000000000000e+02	5.299048680233126163e+01
5.500000000000000000e+02	5.508703646248393682e+01
5.510000000000000000e+02	5.725337825239083855e+01
5.520000000000000000e+02	5.949124178687252140e+01
5.530000000000000000e+02	6.180237423276860653e+01
5.540000000000000000e+02	6.418853935819535650e+01
5.550000000000000000e+02	6.665151652532131266e+01
5.560000000000000000e+02	6.919309962588066298e+01
5.570000000000000000e+02	7.181509595870996066e+01
5.580000000000000000e+02	7.451932504866005047e+01
5.590000000000000000e+02	7.730761740630684642e+01
5.600000000000000000e+02	8.018181322795989274e+01
5.610000000000000000e+02	8.314376103554522501e+01
5.620000000000000000e+02	8.619531625602377289e+01
5.630000000000000000e+02	8.933833974009137080e+01
5.640000000000000000e+02	9.257469621999617004e+01
5.650000000000000000e+02	9.590625270640468614e+01
5.660000000000000000e+02	9.933487682434342503e+01
5.670000000000000000e+02	1.028624350883438154e+02
5.680000000000000000e+02	1.064907911170233774e+02
5.690000000000000000e+02	1.102218037874427949e+02
5.700000000000000000e+02	1.140573253296881688e+02
5.710000000000000000e+02	1.179991993622445250e+02
5.720000000000000000e+02	1.220492588688399138e+02
5.730000000000000000e+02	1.262093241175602145e+02
5.740000000000000000e+02	1.304812005231589467e+02
5.750000000000000000e+02	1.348666764536074254e+02
5.760000000000000000e+02	1.393675209820602277e+02
5.770000000000000000e+02	1.439854815855394747e+02
5.780000000000000000e+02	1.487222817917718771e+02
5.790000000000000000e+02	1.535796187757464395e+02
5.800000000000000000e+02	1.585591609076928137e+02
5.810000000000000000e+02	1.636625452543192409e+02
5.820000000000000000e+02	1.688913750352830903e+02
5.830000000000000000e+02	1.742472170370029971e+02
5.840000000000000000e+02	1.797315989860653360e+02
5.850000000000000000e+02	1.853460068846088404e+02
5.860000000000000000e+02	1.910918823102129522e+02
5.870000000000000000e+02	1.969706196829545490e+02
5.880000000000000000e+02	2.029835635024309397e+02
5.890000000000000000e+02	2.091320055576857726e+02
5.900000000000000000e+02	2.154171821131095328e+02
5.910000000000000000e+02	2.218402710735176981e+02
5.920000000000000000e+02	2.284023891317442292e+02
5.930000000000000000e+02	2.351045889022118160e+02
5.940000000000000000e+02	2.419478560440751096e+02
5.950000000000000000e+02	2.489331063776473627e+02
5.960000000000000000e+02	2.560611829979491745e+02
5.970000000000000000e+02	2.633328533893308077e+02
5.980000000000000000e+02	2.707488065452318438e+02
5.990000000000000000e+02	2.783096500972543481e+02
6.000000000000000000e+02	2.860159074578244258e+02
6.010000000000000000e+02	2.938680149808199076e+02
6.020000000000000000e+02	3.018663191446337350e+02
6.030000000000000000e+02	3.100110737622288752e+02
6.040000000000000000e+02	3.183024372228263701e+02
6.050000000000000000e+02	3.267404697699377039e+02
6.060000000000000000e+02	3.353251308205261125e+02
6.070000000000000000e+02	3.440562763301414293e+02
6.080000000000000000e+02	3.529336562089243898e+02
6.090000000000000000e+02	3.619569117934264568e+02
6.100000000000000000e+02	3.711255733792294222e+02
6.110000000000000000e+02	3.804390578193742840e+02
6.120000000000000000e+02	3.898966661936382820e+02
6.130000000000000000e+02	3.994975815537038102e+02
6.140000000000000000e+02	4.092408667492728682e+02
6.150000000000000000e+02	4.191254623401710546e+02
6.160000000000000000e+02	4.291501845994720270e+02
6.170000000000000000e+02	4.393137236126473226e+02
6.180000000000000000e+02	4.496146414777130644e+02
6.190000000000000000e+02	4.600513706112976706e+02
6.200000000000000000e+02	4.706222121655033561e+02
6.210000000000000000e+02	4.813253345603641833e+02
6.220000000000000000e+02	4.921587721366310575e+02
6.230000000000000000e+02	5.031204239335273769e+02
6.240000000000000000e+02	5.142080525960176374e+02
6.250000000000000000e+02	5.254192834160302255e+02
6.260000000000000000e+02	5.367516035119522257e+02
6.270000000000000000e+02	5.482023611505849203e+02
6.280000000000000000e+02	5.597687652156145077e+02
6.290000000000000000e+02	5.714478848264925546e+02
6.300000000000000000e+02	5.832366491114713654e+02
6.310000000000000000e+02	5.951318471383575570e+02
6.320000000000000000e+02	6.071301280063737522e+02
6.330000000000000000e+02	6.192280011023223096e+02
6.340000000000000000e+02	6.314218365240456023e+02
6.350000000000000000e+02	6.437078656739645339e+02
6.360000000000000000e+02	6.560821820252599537e+02
6.370000000000000000e+02	6.685407420630266415e+02
6.380000000000000000e+02	6.810793664024986356e+02
6.390000000000000000e+02	6.936937410861883109e+02
6.400000000000000000e+02	7.063794190615353727e+02
6.410000000000000000e+02	7.191318218403940818e+02
6.420000000000000000e+02	7.319462413414163393e+02
6.430000000000000000e+02	7.448178419161139345e+02
6.440000000000000000e+02	7.577416625590979038e+02
6.450000000000000000e+02	7.707126193027021372e+02
6.460000000000000000e+02	7.837255077959031269e+02
6.470000000000000000e+02	7.967750060671511392e+02
6.480000000000000000e+02	8.098556774704157988e+02
6.490000000000000000e+02	8.229619738134485942e+02
6.500000000000000000e+02	8.360882386669441075e+02
6.510000000000000000e+02	8.492287108529749275e+02
6.520000000000000000e+02	8.623775281107516548e+02
6.530000000000000000e+02	8.755287309374444931e+02
6.540000000000000000e+02	8.886762666014813021e+02
6.550000000000000000e+02	9.018139933254174139e+02
6.560000000000000000e+02	9.149356846351571448e+02
6.570000000000000000e+02	9.280350338719789534e+02
6.580000000000000000e+02	9.411056588635120761e+02
6.590000000000000000e+02	9.541411067494899498e+02
6.600000000000000000e+02	9.671348589577938810e+02
6.610000000000000000e+02	9.800803363260038168e+02
6.620000000000000000e+02	9.929709043633556576e+02
6.630000000000000000e+02	1.005799878647721812e+03
6.640000000000000000e+02	1.018560530351928264e+03
6.650000000000000000e+02	1.031246091893445509e+03
6.660000000000000000e+02	1.043849762701207737e+03
6.670000000000000000e+02	1.056364715093049881e+03
6.680000000000000000e+02	1.068784100256983947e+03
6.690000000000000000e+02	1.081101054329295039e+03
6.700000000000000000e+02	1.093308704562185540e+03
6.710000000000000000e+02	1.105400175573470960e+03
6.720000000000000000e+02	1.117368595670608556e+03
6.730000000000000000e+02	1.129207103241134291e+03
6.740000000000000000e+02	1.140908853201383408e+03
6.750000000000000000e+02	1.152467023495188414e+03
6.760000000000000000e+02	1.163874821634083219e+03
6.770000000000000000e+02	1.175125491270378916e+03
6.780000000000000000e+02	1.186212318794339581e+03
6.790000000000000000e+02	1.197128639946557087e+03
6.800000000000000000e+02	1.207867846436517993e+03
6.810000000000000000e+02	1.218423392558250271e+03
6.820000000000000000e+02	1.228788801793866469e+03
6.830000000000000000e+02	1.238957673395749453e+03
6.840000000000000000e+02	1.248923688938084524e+03
6.850000000000000000e+02	1.258680618828406978e+03
6.860000000000000000e+02	1.268222328769822525e+03
6.870000000000000000e+02	1.277542786164560084e+03
6.880000000000000000e+02	1.286636066449540976e+03
6.890000000000000000e+02	1.295496359354681090e+03
6.900000000000000000e+02	1.304117975074699871e+03
6.910000000000000000e+02	1.312495350345286624e+03
6.920000000000000000e+02	1.320623054414559419e+03
6.930000000000000000e+02	1.328495794900861938e+03
6.940000000000000000e+02	1.336108423528070489e+03
6.950000000000000000e+02	1.343455941729719598e+03
6.960000000000000000e+02	1.350533506113421026e+03
6.970000000000000000e+02	1.357336433777219327e+03
6.980000000000000000e+02	1.363860207469722127e+03
6.990000000000000000e+02	1.370100480586053664e+03
7.000000000000000000e+02	1.376053081991899262e+03
7.010000000000000000e+02	1.381714020668149260e+03
7.020000000000000000e+02	1.387079490168905977e+03
7.030000000000000000e+02	1.392145872885885638e+03
7.040000000000000000e+02	1.396909744112527051e+03
7.050000000000000000e+02	1.401367875901419893e+03
7.060000000000000000e+02	1.405517240708966710e+03
7.070000000000000000e+02	1.409355014821523810e+03
7.080000000000000000e+02	1.412878581557589996e+03
7.090000000000000000e+02	1.416085534240960669e+03
7.100000000000000000e+02	1.418973678940120863e+03
7.110000000000000000e+02	1.421541036969507786e+03
7.120000000000000000e+02	1.423785847148656103e+03
7.130000000000000000e+02	1.425706567815610470e+03
7.140000000000000000e+02	1.427301878591387094e+03
7.150000000000000000e+02	1.428570681892654420e+03
7.160000000000000000e+02	1.429512104190208447e+03
7.170000000000000000e+02	1.430125497011222706e+03
7.180000000000000000e+02	1.430410437683661030e+03
7.190000000000000000e+02	1.430366729821661238e+03
7.200000000000000000e+02	1.429994403551103687e+03
7.210000000000000000e+02	1.429293715475007957e+03
7.220000000000000000e+02	1.428265148378808590e+03
7.230000000000000000e+02	1.426909410675984645e+03
7.240000000000000000e+02	1.425227435594938470e+03
7.250000000000000000e+02	1.423220380108422887e+03
7.260000000000000000e+02	1.420889623607243493e+03
7.270000000000000000e+02	1.418236766320357674e+03
7.280000000000000000e+02	1.415263627483909659e+03
7.290000000000000000e+02	1.411972243262130178e+03
7.300000000000000000e+02	1.408364864423427889e+03
7.310000000000000000e+02	1.404443953775387172e+03
7.320000000000000000e+02	1.400212183362761607e+03
7.330000000000000000e+02	1.395672431432927169e+03
7.340000000000000000e+02	1.390827779173620002e+03
7.350000000000000000e+02	1.385681507228133114e+03
7.360000000000000000e+02	1.380237091993489003e+03
7.370000000000000000e+02	1.374498201707435328e+03
7.380000000000000000e+02	1.368468692330428894e+03
7.390000000000000000e+02	1.362152603229076931e+03
7.400000000000000000e+02	1.355554152667799599e+03
7.410000000000000000e+02	1.348677733115753426e+03
7.420000000000000000e+02	1.341527906376324836e+03
7.430000000000000000e+02	1.334109398546746206e+03
7.440000000000000000e+02	1.326427094815630198e+03
7.450000000000000000e+02	1.318486034106429315e+03
7.460000000000000000e+02	1.310291403575036156e+03
7.470000000000000000e+02	1.301848532969929465e+03
7.480000000000000000e+02	1.293162888863435001e+03
7.490000000000000000e+02	1.284240068762829196e+03
7.500000000000000000e+02	1.275085795110155232e+03
7.510000000000000000e+02	1.265705909179728906e+03
7.520000000000000000e+02	1.256106364882428579e+03
7.530000000000000000e+02	1.246293222485940305e+03
7.540000000000000000e+02	1.236272642260199518e+03
7.550000000000000000e+02	1.226050878057322507e+03
7.560000000000000000e+02	1.215634270835356119e+03
7.570000000000000000e+02	1.205029242135183040e+03
7.580000000000000000e+02	1.194242287519927231e+03
7.590000000000000000e+02	1.183279969986182095e+03
7.600000000000000000e+02	1.172148913356347521e+03
7.610000000000000000e+02	1.160855795661311731e+03
7.620000000000000000e+02	1.149407342522648150e+03
7.630000000000000000e+02	1.137810320543404941e+03
7.640000000000000000e+02	1.126071530716477127e+03
7.650000000000000000e+02	1.114197801859422270e+03
7.660000000000000000e+02	1.102195984084459269e+03
7.670000000000000000e+02	1.090072942312241821e+03
7.680000000000000000e+02	1.077835549837836197e+03
7.690000000000000000e+02	1.065490681957161769e+03
7.700000000000000000e+02	1.053045209661966737e+03
7.710000000000000000e+02	1.040505993411210284e+03
7.720000000000000000e+02	1.027879876986513409e+03
7.730000000000000000e+02	1.015173681439113352e+03
7.740000000000000000e+02	1.002394199135530243e+03
7.750000000000000000e+02	9.895481879088987398e+02
7.760000000000000000e+02	9.766423653226772785e+02
7.770000000000000000e+02	9.636834030531719009e+02
7.780000000000000000e+02	9.506779213970467026e+02
7.790000000000000000e+02	9.376324839097138693e+02
7.800000000000000000e+02	9.245535921802041912e+02
7.810000000000000000e+02	9.114476807478322371e+02
7.820000000000000000e+02	8.983211121656694331e+02
7.830000000000000000e+02	8.851801722155312291e+02
7.840000000000000000e+02	8.720310652788823518e+02
7.850000000000000000e+02	8.588799098677463917e+02
7.860000000000000000e+02	8.457327343193982188e+02
7.870000000000000000e+02	8.325954726582908734e+02
7.880000000000000000e+02	8.194739606283607145e+02
7.890000000000000000e+02	8.063739318985273030e+02
7.900000000000000000e+02	7.933010144438878797e+02
7.910000000000000000e+02	7.802607271047863833e+02
7.920000000000000000e+02	7.672584763256187443e+02
7.930000000000000000e+02	7.542995530749187765e+02
7.940000000000000000e+02	7.413891299479563486e+02
7.950000000000000000e+02	7.285322584527659728e+02
7.960000000000000000e+02	7.157338664802172161e+02
7.970000000000000000e+02	7.029987559584347991e+02
7.980000000000000000e+02	6.903316006915777052e+02
7.990000000000000000e+02	6.777369443826885345e+02
8.000000000000000000e+02	6.652191988400425089e+02
8.010000000000000000e+02	6.527826423661380204e+02
8.020000000000000000e+02	6.404314183281977648e+02
8.030000000000000000e+02	6.281695339087804086e+02
8.040000000000000000e+02	6.160008590348414828e+02
8.050000000000000000e+02	6.039291254833299263e+02
8.060000000000000000e+02	5.919579261611617085e+02
8.070000000000000000e+02	5.800907145571749197e+02
8.080000000000000000e+02	5.683308043634463047e+02
8.090000000000000000e+02	5.566813692631261574e+02
8.100000000000000000e+02	5.451454428817462485e+02
8.110000000000000000e+02	5.337259188987516154e+02
8.120000000000000000e+02	5.224255513158219628e+02
8.130000000000000000e+02	5.112469548783653863e+02
8.140000000000000000e+02	5.001926056464037629e+02
8.150000000000000000e+02	4.892648417109081151e+02
8.160000000000000000e+02	4.784658640514938384e+02
8.170000000000000000e+02	4.677977375312517552e+02
8.180000000000000000e+02	4.572623920243640327e+02
8.190000000000000000e+02	4.468616236720329198e+02
8.200000000000000000e+02	4.365970962621576064e+02
8.210000000000000000e+02	4.264703427280840060e+02
8.220000000000000000e+02	4.164827667616837061e+02
8.230000000000000000e+02	4.066356445359351142e+02
8.240000000000000000e+02	3.969301265321213918e+02
8.250000000000000000e+02	3.873672394667066783e+02
8.260000000000000000e+02	3.779478883129105498e+02
8.270000000000000000e+02	3.686728584119651373e+02
8.280000000000000000e+02	3.595428176690231226e+02
8.290000000000000000e+02	3.505583188286660175e+02
8.300000000000000000e+02	3.417198018249630422e+02
8.310000000000000000e+02	3.330275962010356352e+02
8.320000000000000000e+02	3.244819235930975765e+02
8.330000000000000000e+02	3.160829002739639577e+02
8.340000000000000000e+02	3.078305397510580974e+02
8.350000000000000000e+02	2.997247554139801196e+02
8.360000000000000000e+02	2.917653632267548005e+02
8.370000000000000000e+02	2.839520844599297789e+02
8.380000000000000000e+02	2.762845484577579214e+02
8.390000000000000000e+02	2.687622954357710228e+02
8.400000000000000000e+02	2.613847793041247769e+02
8.410000000000000000e+02	2.541513705121819839e+02
8.420000000000000000e+02	2.470613589098883267e+02
8.430000000000000000e+02	2.401139566215895798e+02
8.440000000000000000e+02	2.333083009280414899e+02
8.450000000000000000e+02	2.266434571524648902e+02
8.460000000000000000e+02	2.201184215466129217e+02
8.470000000000000000e+02	2.137321241729272572e+02
8.480000000000000000e+02	2.074834317789796216e+02
8.490000000000000000e+02	2.013711506605168040e+02
8.500000000000000000e+02	1.953940295095498811e+02
8.510000000000000000e+02	1.895507622440585749e+02
8.520000000000000000e+02	1.838399908160080258e+02
8.530000000000000000e+02	1.782603079945097306e+02
8.540000000000000000e+02	1.728102601210921989e+02
8.550000000000000000e+02	1.674883498341799566e+02
8.560000000000000000e+02	1.622930387600177085e+02
8.570000000000000000e+02	1.572227501674149721e+02
8.580000000000000000e+02	1.522758715838200771e+02
8.590000000000000000e+02	1.474507573703756691e+02
8.600000000000000000e+02	1.427457312537429459e+02
8.610000000000000000e+02	1.381590888126185348e+02
8.620000000000000000e+02	1.336890999170097416e+02
8.630000000000000000e+02	1.293340111184646730e+02
8.640000000000000000e+02	1.250920479895933113e+02
8.650000000000000000e+02	1.209614174113465452e+02
8.660000000000000000e+02	1.169403098066550086e+02
8.670000000000000000e+02	1.130269013191579717e+02
8.680000000000000000e+02	1.092193559358829162e+02
8.690000000000000000e+02	1.055158275528607561e+02
8.700000000000000000e+02	1.019144619827888789e+02
8.710000000000000000e+02	9.841339890397144075e+01
8.720000000000000000e+02	9.501077374988909696e+01
8.730000000000000000e+02	9.170471953886421090e+01
8.740000000000000000e+02	8.849336864340014586e+01
8.750000000000000000e+02	8.537485449888470157e+01
8.760000000000000000e+02	8.234731325145338587e+01
8.770000000000000000e+02	7.940888534491065798e+01
8.780000000000000000e+02	7.655771704670901556e+01
8.790000000000000000e+02	7.379196191308039943e+01
8.800000000000000000e+02	7.110978219350808160e+01
8.810000000000000000e+02	6.850935017481533862e+01
8.820000000000000000e+02	6.598884946523378403e+01
8.830000000000000000e+02	6.354647621889522924e+01
8.840000000000000000e+02	6.118044030126787192e+01
8.850000000000000000e+02	5.888896639613386697e+01
8.860000000000000000e+02	5.667029505477375295e+01
8.870000000000000000e+02	5.452268368808982757e+01
8.880000000000000000e+02	5.244440750246464233e+01
8.890000000000000000e+02	5.043376038020819863e+01
8.900000000000000000e+02	4.848905570550284239e+01
8.910000000000000000e+02	4.660862713680727865e+01
8.920000000000000000e+02	4.479082932672735495e+01
8.930000000000000000e+02	4.303403859040650303e+01
8.940000000000000000e+02	4.133665352352856104e+01
8.950000000000000000e+02	3.969709557106293829e+01
8.960000000000000000e+02	3.811380954791560072e+01
8.970000000000000000e+02	3.658526411267874323e+01
8.980000000000000000e+02	3.510995219569988279e+01
8.990000000000000000e+02	3.368639138271358746e+01
9.000000000000000000e+02	3.231312425529969090e+01
9.010000000000000000e+02	3.098871868944912222e+01
9.020000000000000000e+02	2.971176811353274161e+01
9.030000000000000000e+02	2.848089172697920901e+01
9.040000000000000000e+02	2.729473468097769029e+01
9.050000000000000000e+02	2.615196822252539732e+01
9.060000000000000000e+02	2.505128980314440312e+01
9.070000000000000000e+02	2.399142315359212674e+01
9.080000000000000000e+02	2.297111832588842262e+01
9.090000000000000000e+02	2.198915170397745555e+01
9.100000000000000000e+02	2.104432598433789892e+01
9.110000000000000000e+02	2.013547012784425760e+01
9.120000000000000000e+02	1.926143928417392814e+01
9.130000000000000000e+02	1.842111469004115776e+01
9.140000000000000000e+02	1.761340354252527973e+01
9.150000000000000000e+02	1.683723884874505927e+01
9.160000000000000000e+02	1.609157925311368587e+01
9.170000000000000000e+02	1.537540884339007441e+01
9.180000000000000000e+02	1.468773693672210534e+01
9.190000000000000000e+02	1.402759784685630073e+01
9.200000000000000000e+02	1.339405063366550941e+01
9.210000000000000000e+02	1.278617883612286654e+01
9.220000000000000000e+02	1.220309018982575466e+01
9.230000000000000000e+02	1.164391633014785477e+01
9.240000000000000000e+02	1.110781248207121941e+01
9.250000000000000000e+02	1.059395713772371472e+01
9.260000000000000000e+02	1.010155172261885248e+01
9.270000000000000000e+02	9.629820251567942080e+00
9.280000000000000000e+02	9.178008975205202091e+00
9.290000000000000000e+02	8.745386018037981657e+00
9.300000000000000000e+02	8.331241008904887835e+00
9.310000000000000000e+02	7.934884704695504887e+00
9.320000000000000000e+02	7.555648608155243195e+00
9.330000000000000000e+02	7.192884580569994135e+00
9.340000000000000000e+02	6.845964450094954579e+00
9.350000000000000000e+02	6.514279616462703260e+00
9.360000000000000000e+02	6.197240652776019765e+00
9.370000000000000000e+02	5.894276905061537342e+00
9.380000000000000000e+02	5.604836090231150258e+00
9.390000000000000000e+02	5.328383893069248423e+00
9.400000000000000000e+02	5.064403562835160244e+00
9.410000000000000000e+02	4.812395510041937108e+00
9.420000000000000000e+02	4.571876903944784409e+00
9.430000000000000000e+02	4.342381271244865282e+00
9.440000000000000000e+02	4.123458096487260249e+00
9.450000000000000000e+02	3.914672424605359691e+00
9.460000000000000000e+02	3.715604466037869535e+00
9.470000000000000000e+02	3.525849204819183402e+00
9.480000000000000000e+02	3.345016010019040920e+00
9.490000000000000000e+02	3.172728250882914658e+00
9.500000000000000000e+02	3.008622916001004732e+00
9.510000000000000000e+02	2.852350236810570649e+00
9.520000000000000000e+02	2.703573315713892811e+00
9.530000000000000000e+02	2.561967759072318884e+00
9.540000000000000000e+02	2.427221315315830186e+00
9.550000000000000000e+02	2.299033518386934816e+00
9.560000000000000000e+02	2.177115336718031813e+00
9.570000000000000000e+02	2.061188827922234790e+00
9.580000000000000000e+02	1.950986799359196722e+00
9.590000000000000000e+02	1.846252474719771053e+00
9.600000000000000000e+02	1.746739166756256401e+00
9.610000000000000000e+02	1.652209956268598789e+00
9.620000000000000000e+02	1.562437377441248110e+00
9.630000000000000000e+02	1.477203109610301546e+00
9.640000000000000000e+02	1.396297675526231297e+00
9.650000000000000000e+02	1.319520146163798646e+00
9.660000000000000000e+02	1.246677852117690222e+00
9.670000000000000000e+02	1.177586101610011982e+00
9.680000000000000000e+02	1.112067905124038969e+00
9.690000000000000000e+02	1.049953706667404063e+00
9.700000000000000000e+02	9.910811216574255678e-01
9.710000000000000000e+02	9.352946814113116680e-01
9.720000000000000000e+02	8.824455842146056161e-01
9.730000000000000000e+02	8.323914529324608624e-01
9.740000000000000000e+02	7.849960991201180294e-01
9.750000000000000000e+02	7.401292935812113782e-01
9.760000000000000000e+02	6.976665433154369822e-01
9.770000000000000000e+02	6.574888747903970820e-01
9.780000000000000000e+02	6.194826234663138864e-01
9.790000000000000000e+02	5.835392294966184057e-01
9.800000000000000000e+02	5.495550395221843187e-01
9.810000000000000000e+02	5.174311144722332223e-01
9.820000000000000000e+02	4.870730432805784882e-01
9.830000000000000000e+02	4.583907624219592525e-01
9.840000000000000000e+02	4.312983811696965986e-01
9.850000000000000000e+02	4.057140124727366404e-01
9.860000000000000000e+02	3.815596093473924699e-01
9.870000000000000000e+02	3.587608066766616033e-01
9.880000000000000000e+02	3.372467683078966827e-01
9.890000000000000000e+02	3.169500393378295588e-01
9.900000000000000000e+02	2.978064034725024789e-01
9.910000000000000000e+02	2.797547453484475755e-01
9.920000000000000000e+02	2.627369177005579592e-01
9.930000000000000000e+02	2.466976132614577821e-01
9.940000000000000000e+02	2.315842412767454284e-01
9.950000000000000000e+02	2.173468085203336675e-01
9.960000000000000000e+02	2.039378046941387468e-01
9.970000000000000000e+02	1.913120920966196181e-01
9.980000000000000000e+02	1.794267994450997883e-01
9.990000000000000000e+02	1.682412197374311968e-01
1.000000000000000000e+03	1.577167120393199728e-01
