4.410000000000000000e+02	3.263705518517072690e-01
4.420000000000000000e+02	3.475212692716101448e-01
4.430000000000000000e+02	3.699564253444220241e-01
4.440000000000000000e+02	3.937481442297136591e-01
4.450000000000000000e+02	4.189722182210989798e-01
4.460000000000000000e+02	4.457082707149564449e-01
4.470000000000000000e+02	4.740399250321385427e-01
4.480000000000000000e+02	5.040549792239935600e-01
4.490000000000000000e+02	5.358455869924132475e-01
4.500000000000000000e+02	5.695084448515436160e-01
4.510000000000000000e+02	6.051449856564110608e-01
4.520000000000000000e+02	6.428615786209038729e-01
4.530000000000000000e+02	6.827697359443690717e-01
4.540000000000000000e+02	7.249863261624135413e-01
4.550000000000000000e+02	7.696337943334258247e-01
4.560000000000000000e+02	8.168403891677622486e-01
4.570000000000000000e+02	8.667403972015175206e-01
4.580000000000000000e+02	9.194743841112191785e-01
4.590000000000000000e+02	9.751894432597064677e-01
4.600000000000000000e+02	1.034039451556854283e+00
4.610000000000000000e+02	1.096185332711555827e+00
4.620000000000000000e+02	1.161795327943653255e+00
4.630000000000000000e+02	1.231045274216079122e+00
4.640000000000000000e+02	1.304118890038508560e+00
4.650000000000000000e+02	1.381208068884130835e+00
4.660000000000000000e+02	1.462513180250902822e+00
4.670000000000000000e+02	1.548243378387616165e+00
4.680000000000000000e+02	1.638616918693513558e+00
4.690000000000000000e+02	1.733861481787732028e+00
4.700000000000000000e+02	1.834214505231855918e+00
4.710000000000000000e+02	1.939923522874939632e+00
4.720000000000000000e+02	2.051246511775886461e+00
4.730000000000000000e+02	2.168452246642622594e+00
4.740000000000000000e+02	2.291820661711507334e+00
4.750000000000000000e+02	2.421643219973442562e+00
4.760000000000000000e+02	2.558223289635541242e+00
4.770000000000000000e+02	2.701876527688659824e+00
4.780000000000000000e+02	2.852931270431943833e+00
4.790000000000000000e+02	3.011728930785421809e+00
4.800000000000000000e+02	3.178624402201977173e+00
4.810000000000000000e+02	3.353986468977760094e+00
4.820000000000000000e+02	3.538198222817113159e+00
4.830000000000000000e+02	3.731657486093552745e+00
4.840000000000000000e+02	3.934777246516172333e+00
4.850000000000000000e+02	4.147986135671115626e+00
4.860000000000000000e+02	4.371729148901945194e+00
4.870000000000000000e+02	4.606469701696182639e+00
4.880000000000000000e+02	4.852698583142243116e+00
4.890000000000000000e+02	5.110975630925369551e+00
4.900000000000000000e+02	5.382113613399843288e+00
4.910000000000000000e+02	5.667926928602192049e+00
4.920000000000000000e+02	5.974025184898535734e+00
4.930000000000000000e+02	6.319333232068847117e+00
4.940000000000000000e+02	6.765627903955116373e+00
4.950000000000000000e+02	7.500644922006550530e+00
4.960000000000000000e+02	9.049027062099828100e+00
4.970000000000000000e+02	1.275174673027178152e+01
4.980000000000000000e+02	2.173060716859257013e+01
4.990000000000000000e+02	4.257346901542548778e+01
5.000000000000000000e+02	8.780005142392336381e+01
5.010000000000000000e+02	1.786270809858163204e+02
5.020000000000000000e+02	3.465995397504969446e+02
5.030000000000000000e+02	6.316275215827937473e+02
5.040000000000000000e+02	1.073737926045672793e+03
5.050000000000000000e+02	1.697528385847325808e+03
5.060000000000000000e+02	2.492318217242932405e+03
5.070000000000000000e+02	3.395953184731579313e+03
5.080000000000000000e+02	4.292835669953685283e+03
5.090000000000000000e+02	5.033581467011927998e+03
5.100000000000000000e+02	5.474259894520318085e+03
5.110000000000000000e+02	5.521779406653934529e+03
5.120000000000000000e+02	5.165929455772256915e+03
5.130000000000000000e+02	4.483001601959078471e+03
5.140000000000000000e+02	3.609235073185994224e+03
5.150000000000000000e+02	2.696721816858664624e+03
5.160000000000000000e+02	1.871245713829620399e+03
5.170000000000000000e+02	1.207590365281657796e+03
5.180000000000000000e+02	7.270099435014002438e+02
5.190000000000000000e+02	4.111269100672017771e+02
5.200000000000000000e+02	2.218097672005371521e+02
5.210000000000000000e+02	1.181356974840685723e+02
5.220000000000000000e+02	6.631063161853973043e+01
5.230000000000000000e+02	4.284184561353309562e+01
5.240000000000000000e+02	3.347578545894139523e+01
5.250000000000000000e+02	3.052406727013075027e+01
5.260000000000000000e+02	3.025954471581856708e+01
5.270000000000000000e+02	3.104719263221480574e+01
5.280000000000000000e+02	3.223517420421201507e+01
5.290000000000000000e+02	3.358692893074354657e+01
5.300000000000000000e+02	3.502460329813833795e+01
5.310000000000000000e+02	3.652548991547549662e+01
5.320000000000000000e+02	3.808437310768873374e+01
5.330000000000000000e+02	3.970112585797394900e+01
5.340000000000000000e+02	4.137699328978321489e+01
5.350000000000000000e+02	4.311357628768431738e+01
5.360000000000000000e+02	4.491257700482898940e+01
5.370000000000000000e+02	4.677574016927603395e+01
5.380000000000000000e+02	4.870484031793962743e+01
5.390000000000000000e+02	5.070167885728998414e+01
5.400000000000000000e+02	5.276808301568568993e+01
5.410000000000000000e+02	5.490590509147376252e+01
5.420000000000000000e+02	5.711702170193925099e+01
5.430000000000000000e+02	5.940333298221261060e+01
5.440000000000000000e+02	6.176676172518831720e+01
5.450000000000000000e+02	6.420925246015643495e+01
5.460000000000000000e+02	6.673277046885721120e+01
5.470000000000000000e+02	6.933930073785423076e+01
5.480000000000000000e+02	7.203084684619972222e+01
5.490000000000000000e+02	7.480942978743480865e+01
5.500000000000000000e+02	7.767708672503952982e+01
5.510000000000000000e+02	8.063586968052314319e+01
5.520000000000000000e+02	8.368784415342663863e+01
5.530000000000000000e+02	8.683508767259364447e+01
5.540000000000000000e+02	9.007968827815703605e+01
5.550000000000000000e+02	9.342374293378058780e+01
5.560000000000000000e+02	9.686935586879589266e+01
5.570000000000000000e+02	1.004186368499759823e+02
5.580000000000000000e+02	1.040736993827953683e+02
5.590000000000000000e+02	1.078366588421370125e+02
5.600000000000000000e+02	1.117096305325236187e+02
5.610000000000000000e+02	1.156947276780694409e+02
5.620000000000000000e+02	1.197940593424726643e+02
5.630000000000000000e+02	1.240097282794973523e+02
5.640000000000000000e+02	1.283438287145238235e+02
5.650000000000000000e+02	1.327984440578826479e+02
5.660000000000000000e+02	1.373756445508245179e+02
5.670000000000000000e+02	1.420774848451219441e+02
5.680000000000000000e+02	1.469060015174413252e+02
5.690000000000000000e+02	1.518632105197732187e+02
5.700000000000000000e+02	1.569511045673586409e+02
5.710000000000000000e+02	1.621716504657003384e+02
5.720000000000000000e+02	1.675267863784061717e+02
5.730000000000000000e+02	1.730184190377643745e+02
5.740000000000000000e+02	1.786484209001133365e+02
5.750000000000000000e+02	1.844186272482238849e+02
5.760000000000000000e+02	1.903308332430773362e+02
5.770000000000000000e+02	1.963867909275800230e+02
5.780000000000000000e+02	2.025882061849212903e+02
5.790000000000000000e+02	2.089367356544397580e+02
5.800000000000000000e+02	2.154339836080291946e+02
5.810000000000000000e+02	2.220814987902722351e+02
5.820000000000000000e+02	2.288807712256545130e+02
5.830000000000000000e+02	2.358332289963686605e+02
5.840000000000000000e+02	2.429402349943745207e+02
5.850000000000000000e+02	2.502030836515407373e+02
5.860000000000000000e+02	2.576229976518406488e+02
5.870000000000000000e+02	2.652011246297302023e+02
5.880000000000000000e+02	2.729385338589790422e+02
5.890000000000000000e+02	2.808362129363702593e+02
5.900000000000000000e+02	2.888950644648234061e+02
5.910000000000000000e+02	2.971159027406293944e+02
5.920000000000000000e+02	3.054994504496137893e+02
5.930000000000000000e+02	3.140463353771732500e+02
5.940000000000000000e+02	3.227570871372417969e+02
5.950000000000000000e+02	3.316321339253628366e+02
5.960000000000000000e+02	3.406717993011418457e+02
5.970000000000000000e+02	3.498762990054576676e+02
5.980000000000000000e+02	3.592457378178979184e+02
5.990000000000000000e+02	3.687801064599706251e+02
6.000000000000000000e+02	3.784792785497158434e+02
6.010000000000000000e+02	3.883430076134085880e+02
6.020000000000000000e+02	3.983709241601039821e+02
6.030000000000000000e+02	4.085625328248183337e+02
6.040000000000000000e+02	4.189172095861841854e+02
6.050000000000000000e+02	4.294341990644405769e+02
6.060000000000000000e+02	4.401126119056416997e+02
6.070000000000000000e+02	4.509514222579715010e+02
6.080000000000000000e+02	4.619494653460496352e+02
6.090000000000000000e+02	4.731054351490990371e+02
6.100000000000000000e+02	4.844178821888193625e+02
6.110000000000000000e+02	4.958852114327721665e+02
6.120000000000000000e+02	5.075056803190340702e+02
6.130000000000000000e+02	5.192773969078120899e+02
6.140000000000000000e+02	5.311983181656418083e+02
6.150000000000000000e+02	5.432662483877018076e+02
6.160000000000000000e+02	5.554788377636792802e+02
6.170000000000000000e+02	5.678335810925109399e+02
6.180000000000000000e+02	5.803278166511962581e+02
6.190000000000000000e+02	5.929587252227493082e+02
6.200000000000000000e+02	6.057233292881993520e+02
6.210000000000000000e+02	6.186184923873922799e+02
6.220000000000000000e+02	6.316409186531724345e+02
6.230000000000000000e+02	6.447871525233305192e+02
6.240000000000000000e+02	6.580535786345136557e+02
6.250000000000000000e+02	6.714364219020728797e+02
6.260000000000000000e+02	6.849317477896082664e+02
6.270000000000000000e+02	6.985354627717322273e+02
6.280000000000000000e+02	7.122433149933248160e+02
6.290000000000000000e+02	7.260508951283014767e+02
6.300000000000000000e+02	7.399536374406403638e+02
6.310000000000000000e+02	7.539468210501419208e+02
6.320000000000000000e+02	7.680255714050998677e+02
6.330000000000000000e+02	7.821848619637675029e+02
6.340000000000000000e+02	7.964195160861941076e+02
6.350000000000000000e+02	8.107242091376888311e+02
6.360000000000000000e+02	8.250934708048449693e+02
6.370000000000000000e+02	8.395216876247242226e+02
6.380000000000000000e+02	8.540031057274620707e+02
6.390000000000000000e+02	8.685318337922054752e+02
6.400000000000000000e+02	8.831018462159454430e+02
6.410000000000000000e+02	8.977069864944467099e+02
6.420000000000000000e+02	9.123409708141148258e+02
6.430000000000000000e+02	9.269973918532720063e+02
6.440000000000000000e+02	9.416697227909509138e+02
6.450000000000000000e+02	9.563513215209300142e+02
6.460000000000000000e+02	9.710354350683746816e+02
6.470000000000000000e+02	9.857152042060628219e+02
6.480000000000000000e+02	1.000383668266797827e+03
6.490000000000000000e+02	1.015033770148247982e+03
6.500000000000000000e+02	1.029658361506061738e+03
6.510000000000000000e+02	1.044250208130750480e+03
6.520000000000000000e+02	1.058801995503453099e+03
6.530000000000000000e+02	1.073306334525334933e+03
6.540000000000000000e+02	1.087755767415016862e+03
6.550000000000000000e+02	1.102142773768065354e+03
6.560000000000000000e+02	1.116459776772239138e+03
6.570000000000000000e+02	1.130699149571836188e+03
6.580000000000000000e+02	1.144853221774154463e+03
6.590000000000000000e+02	1.158914286090757059e+03
6.600000000000000000e+02	1.172874605105913361e+03
6.610000000000000000e+02	1.186726418164287224e+03
6.620000000000000000e+02	1.200461948369642187e+03
6.630000000000000000e+02	1.214073409686060131e+03
6.640000000000000000e+02	1.227553014132890894e+03
6.650000000000000000e+02	1.240892979064404017e+03
6.660000000000000000e+02	1.254085534524861941e+03
6.670000000000000000e+02	1.267122930669511561e+03
6.680000000000000000e+02	1.279997445241777086e+03
6.690000000000000000e+02	1.292701391096741645e+03
6.700000000000000000e+02	1.305227123760821542e+03
6.710000000000000000e+02	1.317567049017380214e+03
6.720000000000000000e+02	1.329713630507875223e+03
6.730000000000000000e+02	1.341659397338012013e+03
6.740000000000000000e+02	1.353396951678265395e+03
6.750000000000000000e+02	1.364918976348035358e+03
6.760000000000000000e+02	1.376218242372646728e+03
6.770000000000000000e+02	1.387287616502331275e+03
6.780000000000000000e+02	1.398120068682319243e+03
6.790000000000000000e+02	1.408708679463140015e+03
6.800000000000000000e+02	1.419046647340251184e+03
6.810000000000000000e+02	1.429127296012141642e+03
6.820000000000000000e+02	1.438944081546100051e+03
6.830000000000000000e+02	1.448490599440917777e+03
6.840000000000000000e+02	1.457760591575883154e+03
6.850000000000000000e+02	1.466747953035532873e+03
6.860000000000000000e+02	1.475446738799765853e+03
6.870000000000000000e+02	1.483851170289070069e+03
6.880000000000000000e+02	1.491955641754787848e+03
6.890000000000000000e+02	1.499754726504543669e+03
6.900000000000000000e+02	1.507243182953159931e+03
6.910000000000000000e+02	1.514415960489626514e+03
6.920000000000000000e+02	1.521268205150938456e+03
6.930000000000000000e+02	1.527795265093878470e+03
6.940000000000000000e+02	1.533992695856121827e+03
6.950000000000000000e+02	1.539856265398328560e+03
6.960000000000000000e+02	1.545381958919224644e+03
6.970000000000000000e+02	1.550565983435999897e+03
6.980000000000000000e+02	1.555404772122711165e+03
6.990000000000000000e+02	1.559894988399744534e+03
7.000000000000000000e+02	1.564033529767774553e+03
7.010000000000000000e+02	1.567817531380050923e+03
7.020000000000000000e+02	1.571244369347257589e+03
7.030000000000000000e+02	1.574311663769608231e+03
7.040000000000000000e+02	1.577017281491269614e+03
7.050000000000000000e+02	1.579359338572652405e+03
7.060000000000000000e+02	1.581336202476561539e+03
7.070000000000000000e+02	1.582946493964646606e+03
7.080000000000000000e+02	1.584189088701076344e+03
7.090000000000000000e+02	1.585063118560825160e+03
7.100000000000000000e+02	1.585567972640435528e+03
7.110000000000000000e+02	1.585703297969615505e+03
7.120000000000000000e+02	1.585468999922507237e+03
7.130000000000000000e+02	1.584865242327956366e+03
7.140000000000000000e+02	1.583892447278602276e+03
7.150000000000000000e+02	1.582551294639102707e+03
7.160000000000000000e+02	1.580842721254289700e+03
7.170000000000000000e+02	1.578767919858555842e+03
7.180000000000000000e+02	1.576328337688238435e+03
7.190000000000000000e+02	1.573525674799271201e+03
7.200000000000000000e+02	1.570361882092833866e+03
7.210000000000000000e+02	1.566839159052213290e+03
7.220000000000000000e+02	1.562959951194550058e+03
7.230000000000000000e+02	1.558726947241602829e+03
7.240000000000000000e+02	1.554143076014115877e+03
7.250000000000000000e+02	1.549211503054804098e+03
7.260000000000000000e+02	1.543935626985415411e+03
7.270000000000000000e+02	1.538319075603731108e+03
7.280000000000000000e+02	1.532365701726783072e+03
7.290000000000000000e+02	1.526079578786951743e+03
7.300000000000000000e+02	1.519464996187992256e+03
7.310000000000000000e+02	1.512526454428399575e+03
7.320000000000000000e+02	1.505268659999868760e+03
7.330000000000000000e+02	1.497696520068947393e+03
7.340000000000000000e+02	1.489815136950286160e+03
7.350000000000000000e+02	1.481629802380199408e+03
7.360000000000000000e+02	1.473145991599526951e+03
7.370000000000000000e+02	1.464369357255052137e+03
7.380000000000000000e+02	1.455305723128976751e+03
7.390000000000000000e+02	1.445961077706182323e+03
7.400000000000000000e+02	1.436341567589211081e+03
7.410000000000000000e+02	1.426453490771086763e+03
7.420000000000000000e+02	1.416303289776268912e+03
7.430000000000000000e+02	1.405897544680171222e+03
7.440000000000000000e+02	1.395242966017812932e+03
7.450000000000000000e+02	1.384346387592268229e+03
7.460000000000000000e+02	1.373214759193671171e+03
7.470000000000000000e+02	1.361855139239596383e+03
7.480000000000000000e+02	1.350274687347678764e+03
7.490000000000000000e+02	1.338480656851363619e+03
7.500000000000000000e+02	1.326480387269676385e+03
7.510000000000000000e+02	1.314281296741891310e+03
7.520000000000000000e+02	1.301890874437935054e+03
7.530000000000000000e+02	1.289316672955309514e+03
7.540000000000000000e+02	1.276566300713239798e+03
7.550000000000000000e+02	1.263647414354659304e+03
7.560000000000000000e+02	1.250567711166528397e+03
7.570000000000000000e+02	1.237334921528851282e+03
7.580000000000000000e+02	1.223956801402609017e+03
7.590000000000000000e+02	1.210441124866650853e+03
7.600000000000000000e+02	1.196795676713411240e+03
7.610000000000000000e+02	1.183028245113109506e+03
7.620000000000000000e+02	1.169146614355881184e+03
7.630000000000000000e+02	1.155158557681051661e+03
7.640000000000000000e+02	1.141071830202519095e+03
7.650000000000000000e+02	1.126894161938954767e+03
7.660000000000000000e+02	1.112633250957252812e+03
7.670000000000000000e+02	1.098296756637379076e+03
7.680000000000000000e+02	1.083892293066470074e+03
7.690000000000000000e+02	1.069427422569722012e+03
7.700000000000000000e+02	1.054909649385300099e+03
7.710000000000000000e+02	1.040346413490163741e+03
7.720000000000000000e+02	1.025745084583365497e+03
7.730000000000000000e+02	1.011112956233050454e+03
7.740000000000000000e+02	9.964572401930171281e+02
7.750000000000000000e+02	9.817850608943537054e+02
7.760000000000000000e+02	9.671034501173028275e+02
7.770000000000000000e+02	9.524193418481345361e+02
7.780000000000000000e+02	9.377395673254454778e+02
7.790000000000000000e+02	9.230708502799261623e+02
7.800000000000000000e+02	9.084198023712629038e+02
7.810000000000000000e+02	8.937929188254722703e+02
7.820000000000000000e+02	8.791965742755792235e+02
7.830000000000000000e+02	8.646370188081881452e+02
7.840000000000000000e+02	8.501203742181105554e+02
7.850000000000000000e+02	8.356526304728483865e+02
7.860000000000000000e+02	8.212396423883634498e+02
7.870000000000000000e+02	8.068871265171881078e+02
7.880000000000000000e+02	7.926006582495874682e+02
7.890000000000000000e+02	7.783856691281088160e+02
7.900000000000000000e+02	7.642474443755181710e+02
7.910000000000000000e+02	7.501911206357675610e+02
7.920000000000000000e+02	7.362216839273066853e+02
7.930000000000000000e+02	7.223439678077156714e+02
7.940000000000000000e+02	7.085626517483181033e+02
7.950000000000000000e+02	6.948822597171127882e+02
7.960000000000000000e+02	6.813071589680649822e+02
7.970000000000000000e+02	6.678415590344937982e+02
7.980000000000000000e+02	6.544895109240105739e+02
7.990000000000000000e+02	6.412549065121871763e+02
8.000000000000000000e+02	6.281414781318649148e+02
8.010000000000000000e+02	6.151527983547615577e+02
8.020000000000000000e+02	6.022922799617916780e+02
8.030000000000000000e+02	5.895631760982828382e+02
8.040000000000000000e+02	5.769685806100483205e+02
8.050000000000000000e+02	5.645114285560721328e+02
8.060000000000000000e+02	5.521944968933653399e+02
8.070000000000000000e+02	5.400204053293670086e+02
8.080000000000000000e+02	5.279916173370957040e+02
8.090000000000000000e+02	5.161104413280946801e+02
8.100000000000000000e+02	5.043790319780729874e+02
8.110000000000000000e+02	4.927993917000068791e+02
8.120000000000000000e+02	4.813733722593466950e+02
8.130000000000000000e+02	4.701026765258692421e+02
8.140000000000000000e+02	4.589888603566134293e+02
8.150000000000000000e+02	4.480333346042625635e+02
8.160000000000000000e+02	4.372373672452571327e+02
8.170000000000000000e+02	4.266020856218694917e+02
8.180000000000000000e+02	4.161284787924227544e+02
8.190000000000000000e+02	4.058173999838012946e+02
8.200000000000000000e+02	3.956695691403775186e+02
8.210000000000000000e+02	3.856855755634686034e+02
8.220000000000000000e+02	3.758658806354338253e+02
8.230000000000000000e+02	3.662108206225365166e+02
8.240000000000000000e+02	3.567206095507128225e+02
8.250000000000000000e+02	3.473953421484212072e+02
8.260000000000000000e+02	3.382349968507884910e+02
8.270000000000000000e+02	3.292394388593177723e+02
8.280000000000000000e+02	3.204084232514835548e+02
8.290000000000000000e+02	3.117415981346080684e+02
8.300000000000000000e+02	3.032385078384900226e+02
8.310000000000000000e+02	2.948985961413426935e+02
8.320000000000000000e+02	2.867212095236904474e+02
8.330000000000000000e+02	2.787056004449735269e+02
8.340000000000000000e+02	2.708509306377180224e+02
8.350000000000000000e+02	2.631562744142431143e+02
8.360000000000000000e+02	2.556206219809943434e+02
8.370000000000000000e+02	2.482428827557199895e+02
8.380000000000000000e+02	2.410218886828383233e+02
8.390000000000000000e+02	2.339563975424769922e+02
8.400000000000000000e+02	2.270450962488077948e+02
8.410000000000000000e+02	2.202866041334433476e+02
8.420000000000000000e+02	2.136794762098100193e+02
8.430000000000000000e+02	2.072222064145619811e+02
8.440000000000000000e+02	2.009132308222550591e+02
8.450000000000000000e+02	1.947509308296547488e+02
8.460000000000000000e+02	1.887336363062114799e+02
8.470000000000000000e+02	1.828596287073940232e+02
8.480000000000000000e+02	1.771271441477352937e+02
8.490000000000000000e+02	1.715343764306026628e+02
8.500000000000000000e+02	1.660794800318716682e+02
8.510000000000000000e+02	1.607605730348397231e+02
8.520000000000000000e+02	1.555757400138812727e+02
8.530000000000000000e+02	1.505230348645065988e+02
8.540000000000000000e+02	1.456004835776459743e+02
8.550000000000000000e+02	1.408060869561428206e+02
8.560000000000000000e+02	1.361378232715945558e+02
8.570000000000000000e+02	1.315936508598391868e+02
8.580000000000000000e+02	1.271715106535366999e+02
8.590000000000000000e+02	1.228693286504499866e+02
8.600000000000000000e+02	1.186850183161769507e+02
8.610000000000000000e+02	1.146164829202328974e+02
8.620000000000000000e+02	1.106616178045276939e+02
8.630000000000000000e+02	1.068183125834212035e+02
8.640000000000000000e+02	1.030844532746790350e+02
8.650000000000000000e+02	9.945792436078491505e+01
8.660000000000000000e+02	9.593661078019552235e+01
8.670000000000000000e+02	9.251839984825168983e+01
8.680000000000000000e+02	8.920118310758091695e+01
8.690000000000000000e+02	8.598285810794682504e+01
8.700000000000000000e+02	8.286133011561443595e+01
8.710000000000000000e+02	7.983451375241064341e+01
8.720000000000000000e+02	7.690033456476683682e+01
8.730000000000000000e+02	7.405673052313014182e+01
8.740000000000000000e+02	7.130165345222953022e+01
8.750000000000000000e+02	6.863307039277404442e+01
8.760000000000000000e+02	6.604896489524979586e+01
8.770000000000000000e+02	6.354733824656685925e+01
8.780000000000000000e+02	6.112621063038494640e+01
8.790000000000000000e+02	5.878362222202411402e+01
8.800000000000000000e+02	5.651763421893475936e+01
8.810000000000000000e+02	5.432632980776949694e+01
8.820000000000000000e+02	5.220781506915953685e+01
8.830000000000000000e+02	5.016021982135600865e+01
8.840000000000000000e+02	4.818169840395009373e+01
8.850000000000000000e+02	4.627043040293349208e+01
8.860000000000000000e+02	4.442462131840588313e+01
8.870000000000000000e+02	4.264250317627659115e+01
8.880000000000000000e+02	4.092233508534299347e+01
8.890000000000000000e+02	3.926240374116147791e+01
8.900000000000000000e+02	3.766102387815464425e+01
8.910000000000000000e+02	3.611653867142350549e+01
8.920000000000000000e+02	3.462732008975380182e+01
8.930000000000000000e+02	3.319176920132363051e+01
8.940000000000000000e+02	3.180831643363324801e+01
8.950000000000000000e+02	3.047542178918824263e+01
8.960000000000000000e+02	2.919157501847536906e+01
8.970000000000000000e+02	2.795529575177343062e+01
8.980000000000000000e+02	2.676513359134438375e+01
8.990000000000000000e+02	2.561966816554660298e+01
9.000000000000000000e+02	2.451750914640929935e+01
9.010000000000000000e+02	2.345729623219888182e+01
9.020000000000000000e+02	2.243769909649989813e+01
9.030000000000000000e+02	2.145741730531977254e+01
9.040000000000000000e+02	2.051518020371408113e+01
9.050000000000000000e+02	1.960974677341140904e+01
9.060000000000000000e+02	1.873990546290011494e+01
9.070000000000000000e+02	1.790447399141764251e+01
9.080000000000000000e+02	1.710229912826271459e+01
9.090000000000000000e+02	1.633225644882610794e+01
9.100000000000000000e+02	1.559325006871173791e+01
9.110000000000000000e+02	1.488421235729245851e+01
9.120000000000000000e+02	1.420410363201832382e+01
9.130000000000000000e+02	1.355191183476547856e+01
9.140000000000000000e+02	1.292665219148481093e+01
9.150000000000000000e+02	1.232736685637788199e+01
9.160000000000000000e+02	1.175312454179694477e+01
9.170000000000000000e+02	1.120302013503277117e+01
9.180000000000000000e+02	1.067617430312182236e+01
9.190000000000000000e+02	1.017173308677003085e+01
9.200000000000000000e+02	9.688867484457272639e+00
9.210000000000000000e+02	9.226773027751821843e+00
9.220000000000000000e+02	8.784669348829913460e+00
9.230000000000000000e+02	8.361799741160531596e+00
9.240000000000000000e+02	7.957430714281098716e+00
9.250000000000000000e+02	7.570851543554452334e+00
9.260000000000000000e+02	7.201373815763194131e+00
9.270000000000000000e+02	6.848330971362464936e+00
9.280000000000000000e+02	6.511077844177946439e+00
9.290000000000000000e+02	6.188990199301507289e+00
9.300000000000000000e+02	5.881464269903114328e+00
9.310000000000000000e+02	5.587916293643864662e+00
9.320000000000000000e+02	5.307782049342111286e+00
9.330000000000000000e+02	5.040516394511571185e+00
9.340000000000000000e+02	4.785592804358457464e+00
9.350000000000000000e+02	4.542502912792724779e+00
9.360000000000000000e+02	4.310756055977613244e+00
9.370000000000000000e+02	4.089878818911055092e+00
9.380000000000000000e+02	3.879414585502793056e+00
9.390000000000000000e+02	3.678923092581789511e+00
9.400000000000000000e+02	3.487979988240126339e+00
9.410000000000000000e+02	3.306176394891785719e+00
9.420000000000000000e+02	3.133118477397763169e+00
9.430000000000000000e+02	2.968427016582629641e+00
9.440000000000000000e+02	2.811736988442296692e+00
9.450000000000000000e+02	2.662697149317926115e+00
9.460000000000000000e+02	2.520969627287145798e+00
9.470000000000000000e+02	2.386229520000522797e+00
9.480000000000000000e+02	2.258164499169053041e+00
9.490000000000000000e+02	2.136474421886865205e+00
9.500000000000000000e+02	2.020870948952707469e+00
9.510000000000000000e+02	1.911077170333896014e+00
9.520000000000000000e+02	1.806827237897360661e+00
9.530000000000000000e+02	1.707866005514129260e+00
9.540000000000000000e+02	1.613948676626183465e+00
9.550000000000000000e+02	1.524840459347867272e+00
9.560000000000000000e+02	1.440316229158205452e+00
9.570000000000000000e+02	1.360160199225292965e+00
9.580000000000000000e+02	1.284165598389595875e+00
9.590000000000000000e+02	1.212134356819331238e+00
9.600000000000000000e+02	1.143876799338242822e+00
9.610000000000000000e+02	1.079211346413847528e+00
9.620000000000000000e+02	1.017964222782829165e+00
9.630000000000000000e+02	9.599691736793831698e-01
9.640000000000000000e+02	9.050671886222568796e-01
9.650000000000000000e+02	8.531062327067159279e-01
9.660000000000000000e+02	8.039409853388642668e-01
9.670000000000000000e+02	7.574325863415002358e-01
9.680000000000000000e+02	7.134483893530958465e-01
9.690000000000000000e+02	6.718617224344114458e-01
9.700000000000000000e+02	6.325516557908191784e-01
9.710000000000000000e+02	5.954027765124405569e-01
9.720000000000000000e+02	5.603049702287746792e-01
9.730000000000000000e+02	5.271532095696278564e-01
9.740000000000000000e+02	4.958473493196683402e-01
9.750000000000000000e+02	4.662919281499987023e-01
9.760000000000000000e+02	4.383959768065947005e-01
9.770000000000000000e+02	4.120728326323808144e-01
9.780000000000000000e+02	3.872399602970072463e-01
9.790000000000000000e+02	3.638187786060997353e-01
9.800000000000000000e+02	3.417344932598083695e-01
9.810000000000000000e+02	3.209159354289234933e-01
9.820000000000000000e+02	3.012954060155509928e-01
9.830000000000000000e+02	2.828085254644335245e-01
9.840000000000000000e+02	2.653940889903437794e-01
9.850000000000000000e+02	2.489939270866494414e-01
9.860000000000000000e+02	2.335527711800475803e-01
9.870000000000000000e+02	2.190181242966329489e-01
9.880000000000000000e+02	2.053401366048575316e-01
9.890000000000000000e+02	1.924714857015631109e-01
9.900000000000000000e+02	1.803672615080730013e-01
9.910000000000000000e+02	1.689848556443503402e-01
9.920000000000000000e+02	1.582838551503973068e-01
9.930000000000000000e+02	1.482259404254307189e-01
9.940000000000000000e+02	1.387747872568539098e-01
9.950000000000000000e+02	1.298959728126741764e-01
9.960000000000000000e+02	1.215568854727754333e-01
9.970000000000000000e+02	1.137266383763264471e-01
9.980000000000000000e+02	1.063759865645644842e-01
9.990000000000000000e+02	9.947724760027214230e-02
1.000000000000000000e+03	9.300422554739593006e-02
