4.410000000000000000e+02	3.296453321938024761e+00
4.420000000000000000e+02	3.535210371848695132e+00
4.430000000000000000e+02	3.790092503749865838e+00
4.440000000000000000e+02	4.062099636620646770e+00
4.450000000000000000e+02	4.352287225120439196e+00
4.460000000000000000e+02	4.661768898494758950e+00
4.470000000000000000e+02	4.991719195660939690e+00
4.480000000000000000e+02	5.343376398111481684e+00
4.490000000000000000e+02	5.718045462171249760e+00
4.500000000000000000e+02	6.117101052032023034e+00
4.510000000000000000e+02	6.541990674863670030e+00
4.520000000000000000e+02	6.994237919164617345e+00
4.530000000000000000e+02	7.475445797365658507e+00
4.540000000000000000e+02	7.987300193539130788e+00
4.550000000000000000e+02	8.531573416890097405e+00
4.560000000000000000e+02	9.110127861517325343e+00
4.570000000000000000e+02	9.724919772728197742e+00
4.580000000000000000e+02	1.037800311997382430e+01
4.590000000000000000e+02	1.107153357623748136e+01
4.600000000000000000e+02	1.180777260346123647e+01
4.610000000000000000e+02	1.258909164333129205e+01
4.620000000000000000e+02	1.341797641246255246e+01
4.630000000000000000e+02	1.429703130072655526e+01
4.640000000000000000e+02	1.522898387115398755e+01
4.650000000000000000e+02	1.621668945951309837e+01
4.660000000000000000e+02	1.726313587131937055e+01
4.670000000000000000e+02	1.837144817366791116e+01
4.680000000000000000e+02	1.954489357889937295e+01
4.690000000000000000e+02	2.078688641671315906e+01
4.700000000000000000e+02	2.210099319092650560e+01
4.710000000000000000e+02	2.349093771664652053e+01
4.720000000000000000e+02	2.496060633317409838e+01
4.730000000000000000e+02	2.651405318749311490e+01
4.740000000000000000e+02	2.815550558271786485e+01
4.750000000000000000e+02	2.988936938537301913e+01
4.760000000000000000e+02	3.172023448487080799e+01
4.770000000000000000e+02	3.365288029803021175e+01
4.780000000000000000e+02	3.569228131101298374e+01
4.790000000000000000e+02	3.784361265099163063e+01
4.800000000000000000e+02	4.011225568248407569e+01
4.810000000000000000e+02	4.250380364178796810e+01
4.820000000000000000e+02	4.502406742854459765e+01
4.830000000000000000e+02	4.767908222192348688e+01
4.840000000000000000e+02	5.047511822304952744e+01
4.850000000000000000e+02	5.341871054130189123e+01
4.860000000000000000e+02	5.651677144490423643e+01
4.870000000000000000e+02	5.977703128307621938e+01
4.880000000000000000e+02	6.320969473104482006e+01
4.890000000000000000e+02	6.683325440771375270e+01
4.900000000000000000e+02	7.069343226182759565e+01
4.910000000000000000e+02	7.492027769263519588e+01
4.920000000000000000e+02	7.988696868449268607e+01
4.930000000000000000e+02	8.661593972510394224e+01
4.940000000000000000e+02	9.772982302833193557e+01
4.950000000000000000e+02	1.194776820044785097e+02
4.960000000000000000e+02	1.656288956854981507e+02
4.970000000000000000e+02	2.641266136218477527e+02
4.980000000000000000e+02	4.669431666094931188e+02
4.990000000000000000e+02	8.620710208301375133e+02
5.000000000000000000e+02	1.583718201921416949e+03
5.010000000000000000e+02	2.813089880774721678e+03
5.020000000000000000e+02	4.759568831460059300e+03
5.030000000000000000e+02	7.613838829430953410e+03
5.040000000000000000e+02	1.147334910391121412e+04
5.050000000000000000e+02	1.625611450605389837e+04
5.060000000000000000e+02	2.163527627493059481e+04
5.070000000000000000e+02	2.703359202011333036e+04
5.080000000000000000e+02	3.170453788937965874e+04
5.090000000000000000e+02	3.489435775414369709e+04
5.100000000000000000e+02	3.603982342852736474e+04
5.110000000000000000e+02	3.493104680854085746e+04
5.120000000000000000e+02	3.177479594690190424e+04
5.130000000000000000e+02	2.713211882401530238e+04
5.140000000000000000e+02	2.175608621805709845e+04
5.150000000000000000e+02	1.639401537649513557e+04
5.160000000000000000e+02	1.162492168971509273e+04
5.170000000000000000e+02	7.777715065540080104e+03
5.180000000000000000e+02	4.936109970119202444e+03
5.190000000000000000e+02	3.003748365461050525e+03
5.200000000000000000e+02	1.790381251290672481e+03
5.210000000000000000e+02	1.086579324936383500e+03
5.220000000000000000e+02	7.108423220854867850e+02
5.230000000000000000e+02	5.286101008971710371e+02
5.240000000000000000e+02	4.515924962816583275e+02
5.250000000000000000e+02	4.276128621490939281e+02
5.260000000000000000e+02	4.286113699692390355e+02
5.270000000000000000e+02	4.407660874993521247e+02
5.280000000000000000e+02	4.578152315958978420e+02
5.290000000000000000e+02	4.771451898060901158e+02
5.300000000000000000e+02	4.977531390752721450e+02
5.310000000000000000e+02	5.192901368534555786e+02
5.320000000000000000e+02	5.416521480986847337e+02
5.330000000000000000e+02	5.648200162407188145e+02
5.340000000000000000e+02	5.888018770610826778e+02
5.350000000000000000e+02	6.136140328840838265e+02
5.360000000000000000e+02	6.392750670875866490e+02
5.370000000000000000e+02	6.658041536620721672e+02
5.380000000000000000e+02	6.932205932121464684e+02
5.390000000000000000e+02	7.215436801643534181e+02
5.400000000000000000e+02	7.507926523304183775e+02
5.410000000000000000e+02	7.809866589119216087e+02
5.420000000000000000e+02	8.121447317552590448e+02
5.430000000000000000e+02	8.442857565177760080e+02
5.440000000000000000e+02	8.774284430748167551e+02
5.450000000000000000e+02	9.115912950560373247e+02
5.460000000000000000e+02	9.467925785096575737e+02
5.470000000000000000e+02	9.830502897154456150e+02
5.480000000000000000e+02	1.020382122173313746e+03
5.490000000000000000e+02	1.058805432797755657e+03
5.500000000000000000e+02	1.098337207351379902e+03
5.510000000000000000e+02	1.138994025153696612e+03
5.520000000000000000e+02	1.180792023104317650e+03
5.530000000000000000e+02	1.223746859062668818e+03
5.540000000000000000e+02	1.267873674629314337e+03
5.550000000000000000e+02	1.313187057376960411e+03
5.560000000000000000e+02	1.359701002582166439e+03
5.570000000000000000e+02	1.407428874511734648e+03
5.580000000000000000e+02	1.456383367320675688e+03
5.590000000000000000e+02	1.506576465621501711e+03
5.600000000000000000e+02	1.558019404787456324e+03
5.610000000000000000e+02	1.610722631055022021e+03
5.620000000000000000e+02	1.664695761493790769e+03
5.630000000000000000e+02	1.719947543914374137e+03
5.640000000000000000e+02	1.776485816787588647e+03
5.650000000000000000e+02	1.834317469250580643e+03
5.660000000000000000e+02	1.893448401277892344e+03
5.670000000000000000e+02	1.953883484097689916e+03
5.680000000000000000e+02	2.015626520935448070e+03
5.690000000000000000e+02	2.078680208169344496e+03
5.700000000000000000e+02	2.143046096983420284e+03
5.710000000000000000e+02	2.208724555606192098e+03
5.720000000000000000e+02	2.275714732223892497e+03
5.730000000000000000e+02	2.344014518658795168e+03
5.740000000000000000e+02	2.413620514904214360e+03
5.750000000000000000e+02	2.484527994608667996e+03
5.760000000000000000e+02	2.556730871602417210e+03
5.770000000000000000e+02	2.630221667560084370e+03
5.780000000000000000e+02	2.704991480893359039e+03
5.790000000000000000e+02	2.781029956967825001e+03
5.800000000000000000e+02	2.858325259737793203e+03
5.810000000000000000e+02	2.936864044892587572e+03
5.820000000000000000e+02	3.016631434607075789e+03
5.830000000000000000e+02	3.097610993988337214e+03
5.840000000000000000e+02	3.179784709309158188e+03
5.850000000000000000e+02	3.263132968117665769e+03
5.860000000000000000e+02	3.347634541310672375e+03
5.870000000000000000e+02	3.433266567256398503e+03
5.880000000000000000e+02	3.520004538049993698e+03
5.890000000000000000e+02	3.607822287982792204e+03
5.900000000000000000e+02	3.696691984303514801e+03
5.910000000000000000e+02	3.786584120346587042e+03
5.920000000000000000e+02	3.877467511099471722e+03
5.930000000000000000e+02	3.969309291277385000e+03
5.940000000000000000e+02	4.062074915969948961e+03
5.950000000000000000e+02	4.155728163920299266e+03
5.960000000000000000e+02	4.250231143492859701e+03
5.970000000000000000e+02	4.345544301381451078e+03
5.980000000000000000e+02	4.441626434104628970e+03
5.990000000000000000e+02	4.538434702330154323e+03
6.000000000000000000e+02	4.635924648065247311e+03
6.010000000000000000e+02	4.734050214743894685e+03
6.020000000000000000e+02	4.832763770236792880e+03
6.030000000000000000e+02	4.932016132803762048e+03
6.040000000000000000e+02	5.031756600002415325e+03
6.050000000000000000e+02	5.131932980560768556e+03
6.060000000000000000e+02	5.232491629215141984e+03
6.070000000000000000e+02	5.333377484508314410e+03
6.080000000000000000e+02	5.434534109536307369e+03
6.090000000000000000e+02	5.535903735625543050e+03
6.100000000000000000e+02	5.637427308915402136e+03
6.110000000000000000e+02	5.739044539814394739e+03
6.120000000000000000e+02	5.840693955291282691e+03
6.130000000000000000e+02	5.942312953955679404e+03
6.140000000000000000e+02	6.043837863875666699e+03
6.150000000000000000e+02	6.145204003073160493e+03
6.160000000000000000e+02	6.246345742630845962e+03
6.170000000000000000e+02	6.347196572337703401e+03
6.180000000000000000e+02	6.447689168793378485e+03
6.190000000000000000e+02	6.547755465885012200e+03
6.200000000000000000e+02	6.647326727543530978e+03
6.210000000000000000e+02	6.746333622680024746e+03
6.220000000000000000e+02	6.844706302196475008e+03
6.230000000000000000e+02	6.942374477959028809e+03
6.240000000000000000e+02	7.039267503616023532e+03
6.250000000000000000e+02	7.135314457137268619e+03
6.260000000000000000e+02	7.230444224945510541e+03
6.270000000000000000e+02	7.324585587505810508e+03
6.280000000000000000e+02	7.417667306233478485e+03
6.290000000000000000e+02	7.509618211576494105e+03
6.300000000000000000e+02	7.600367292123912193e+03
6.310000000000000000e+02	7.689843784587588743e+03
6.320000000000000000e+02	7.777977264500765159e+03
6.330000000000000000e+02	7.864697737473580673e+03
6.340000000000000000e+02	7.949935730842474186e+03
6.350000000000000000e+02	8.033622385547658268e+03
6.360000000000000000e+02	8.115689548070531600e+03
6.370000000000000000e+02	8.196069862260859736e+03
6.380000000000000000e+02	8.274696860882031615e+03
6.390000000000000000e+02	8.351505056701473222e+03
6.400000000000000000e+02	8.426430032952601323e+03
6.410000000000000000e+02	8.499408532994330017e+03
6.420000000000000000e+02	8.570378548994242010e+03
6.430000000000000000e+02	8.639279409462109470e+03
6.440000000000000000e+02	8.706051865461326088e+03
6.450000000000000000e+02	8.770638175327288991e+03
6.460000000000000000e+02	8.832982187723566312e+03
6.470000000000000000e+02	8.893029422868936308e+03
6.480000000000000000e+02	8.950727151771101489e+03
6.490000000000000000e+02	9.006024473305984429e+03
6.500000000000000000e+02	9.058872388985073485e+03
6.510000000000000000e+02	9.109223875257210238e+03
6.520000000000000000e+02	9.157033953195586946e+03
6.530000000000000000e+02	9.202259755425493495e+03
6.540000000000000000e+02	9.244860590153450175e+03
6.550000000000000000e+02	9.284798002163914134e+03
6.560000000000000000e+02	9.322035830655586324e+03
6.570000000000000000e+02	9.356540263795615829e+03
6.580000000000000000e+02	9.388279889876463130e+03
6.590000000000000000e+02	9.417225744967116043e+03
6.600000000000000000e+02	9.443351356957471580e+03
6.610000000000000000e+02	9.466632785902129399e+03
6.620000000000000000e+02	9.487048660577522242e+03
6.630000000000000000e+02	9.504580211174270516e+03
6.640000000000000000e+02	9.519211298054704457e+03
6.650000000000000000e+02	9.530928436513933775e+03
6.660000000000000000e+02	9.539720817491237540e+03
6.670000000000000000e+02	9.545580324187278165e+03
6.680000000000000000e+02	9.548501544551365441e+03
6.690000000000000000e+02	9.548481779611864113e+03
6.700000000000000000e+02	9.545521047631837064e+03
6.710000000000000000e+02	9.539622084080903733e+03
6.720000000000000000e+02	9.530790337423439269e+03
6.730000000000000000e+02	9.519033960732162086e+03
6.740000000000000000e+02	9.504363799145148732e+03
6.750000000000000000e+02	9.486793373193368097e+03
6.760000000000000000e+02	9.466338858034536315e+03
6.770000000000000000e+02	9.443019058637974013e+03
6.780000000000000000e+02	9.416855380973767751e+03
6.790000000000000000e+02	9.387871799268008544e+03
6.800000000000000000e+02	9.356094819394222213e+03
6.810000000000000000e+02	9.321553438479262695e+03
6.820000000000000000e+02	9.284279100809817464e+03
6.830000000000000000e+02	9.244305650133399467e+03
6.840000000000000000e+02	9.201669278455075982e+03
6.850000000000000000e+02	9.156408471438397100e+03
6.860000000000000000e+02	9.108563950525782275e+03
6.870000000000000000e+02	9.058178611900202668e+03
6.880000000000000000e+02	9.005297462416194321e+03
6.890000000000000000e+02	8.949967552634092499e+03
6.900000000000000000e+02	8.892237907096932759e+03
6.910000000000000000e+02	8.832159451994513802e+03
6.920000000000000000e+02	8.769784940363970236e+03
6.930000000000000000e+02	8.705168874980459805e+03
6.940000000000000000e+02	8.638367429095595071e+03
6.950000000000000000e+02	8.569438365184714712e+03
6.960000000000000000e+02	8.498440951867274634e+03
6.970000000000000000e+02	8.425435879167283929e+03
6.980000000000000000e+02	8.350485172282937128e+03
6.990000000000000000e+02	8.273652104036535093e+03
7.000000000000000000e+02	8.195001106177020120e+03
7.010000000000000000e+02	8.114597679708532269e+03
7.020000000000000000e+02	8.032508304418867738e+03
7.030000000000000000e+02	7.948800347781787423e+03
7.040000000000000000e+02	7.863541973406847319e+03
7.050000000000000000e+02	7.776802049209577490e+03
7.060000000000000000e+02	7.688650055473775865e+03
7.070000000000000000e+02	7.599155992975969639e+03
7.080000000000000000e+02	7.508390291340221665e+03
7.090000000000000000e+02	7.416423717789030889e+03
7.100000000000000000e+02	7.323327286453322813e+03
7.110000000000000000e+02	7.229172168401437375e+03
7.120000000000000000e+02	7.134029602543503643e+03
7.130000000000000000e+02	7.037970807563830022e+03
7.140000000000000000e+02	6.941066895029742227e+03
7.150000000000000000e+02	6.843388783820898425e+03
7.160000000000000000e+02	6.745007116018319721e+03
7.170000000000000000e+02	6.645992174387420164e+03
7.180000000000000000e+02	6.546413801583953500e+03
7.190000000000000000e+02	6.446341321206353314e+03
7.200000000000000000e+02	6.345843460812147896e+03
7.210000000000000000e+02	6.244988277010200363e+03
7.220000000000000000e+02	6.143843082734400923e+03
7.230000000000000000e+02	6.042474376798125377e+03
7.240000000000000000e+02	5.940947775822346557e+03
7.250000000000000000e+02	5.839327948623709744e+03
7.260000000000000000e+02	5.737678553142233795e+03
7.270000000000000000e+02	5.636062175981501241e+03
7.280000000000000000e+02	5.534540274627442159e+03
7.290000000000000000e+02	5.433173122404906280e+03
7.300000000000000000e+02	5.332019756224336561e+03
7.310000000000000000e+02	5.231137927163983477e+03
7.320000000000000000e+02	5.130584053926201705e+03
7.330000000000000000e+02	5.030413179199513252e+03
7.340000000000000000e+02	4.930678928951346279e+03
7.350000000000000000e+02	4.831433474669611314e+03
7.360000000000000000e+02	4.732727498564617235e+03
7.370000000000000000e+02	4.634610161736331975e+03
7.380000000000000000e+02	4.537129075305488186e+03
7.390000000000000000e+02	4.440330274500838641e+03
7.400000000000000000e+02	4.344258195688619708e+03
7.410000000000000000e+02	4.248955656324369556e+03
7.420000000000000000e+02	4.154463837801398768e+03
7.430000000000000000e+02	4.060822271164605354e+03
7.440000000000000000e+02	3.968068825652875603e+03
7.450000000000000000e+02	3.876239700028127572e+03
7.460000000000000000e+02	3.785369416644021840e+03
7.470000000000000000e+02	3.695490818202615628e+03
7.480000000000000000e+02	3.606635067142681237e+03
7.490000000000000000e+02	3.518831647599130520e+03
7.500000000000000000e+02	3.432108369868911268e+03
7.510000000000000000e+02	3.346491377314994224e+03
7.520000000000000000e+02	3.262005155636475138e+03
7.530000000000000000e+02	3.178672544429592563e+03
7.540000000000000000e+02	3.096514750961413029e+03
7.550000000000000000e+02	3.015551366075211718e+03
7.560000000000000000e+02	2.935800382144081595e+03
7.570000000000000000e+02	2.857278212987110237e+03
7.580000000000000000e+02	2.779999715660480433e+03
7.590000000000000000e+02	2.703978214034213124e+03
7.600000000000000000e+02	2.629225524063796001e+03
7.610000000000000000e+02	2.555751980664836992e+03
7.620000000000000000e+02	2.483566466097900957e+03
7.630000000000000000e+02	2.412676439770103570e+03
7.640000000000000000e+02	2.343087969359562976e+03
7.650000000000000000e+02	2.274805763168667909e+03
7.660000000000000000e+02	2.207833203612166926e+03
7.670000000000000000e+02	2.142172381746378960e+03
7.680000000000000000e+02	2.077824132746323812e+03
7.690000000000000000e+02	2.014788072238272889e+03
7.700000000000000000e+02	1.953062633396178853e+03
7.710000000000000000e+02	1.892645104711517433e+03
7.720000000000000000e+02	1.833531668347397954e+03
7.730000000000000000e+02	1.775717438989263201e+03
7.740000000000000000e+02	1.719196503106161344e+03
7.750000000000000000e+02	1.663961958538356157e+03
7.760000000000000000e+02	1.610005954329002407e+03
7.770000000000000000e+02	1.557319730719701965e+03
7.780000000000000000e+02	1.505893659231965103e+03
7.790000000000000000e+02	1.455717282758947931e+03
7.800000000000000000e+02	1.406779355594266463e+03
7.810000000000000000e+02	1.359067883327229083e+03
7.820000000000000000e+02	1.312570162536464750e+03
7.830000000000000000e+02	1.267272820216616765e+03
7.840000000000000000e+02	1.223161852875551858e+03
7.850000000000000000e+02	1.180222665242352605e+03
7.860000000000000000e+02	1.138440108529247482e+03
7.870000000000000000e+02	1.097798518193546215e+03
7.880000000000000000e+02	1.058281751148583680e+03
7.890000000000000000e+02	1.019873222375651267e+03
7.900000000000000000e+02	9.825559408918578583e+02
7.910000000000000000e+02	9.463125450318527783e+02
7.920000000000000000e+02	9.111253370043036739e+02
7.930000000000000000e+02	8.769763166869958013e+02
7.940000000000000000e+02	8.438472146273354610e+02
7.950000000000000000e+02	8.117195242179809611e+02
7.960000000000000000e+02	7.805745330201718843e+02
7.970000000000000000e+02	7.503933532101737001e+02
7.980000000000000000e+02	7.211569511270458861e+02
7.990000000000000000e+02	6.928461759026657774e+02
8.000000000000000000e+02	6.654417871576130210e+02
8.010000000000000000e+02	6.389244817491419326e+02
8.020000000000000000e+02	6.132749195599986933e+02
8.030000000000000000e+02	5.884737483193125627e+02
8.040000000000000000e+02	5.645016274491921422e+02
8.050000000000000000e+02	5.413392509329509039e+02
8.060000000000000000e+02	5.189673692031434484e+02
8.070000000000000000e+02	4.973668100497079649e+02
8.080000000000000000e+02	4.765184985505910049e+02
8.090000000000000000e+02	4.564034760291842190e+02
8.100000000000000000e+02	4.370029180447788235e+02
8.110000000000000000e+02	4.182981514240237857e+02
8.120000000000000000e+02	4.002706703430707762e+02
8.130000000000000000e+02	3.829021514716631600e+02
8.140000000000000000e+02	3.661744681919450386e+02
8.150000000000000000e+02	3.500697039061537339e+02
8.160000000000000000e+02	3.345701644486741202e+02
8.170000000000000000e+02	3.196583896191519898e+02
8.180000000000000000e+02	3.053171638544737903e+02
8.190000000000000000e+02	2.915295260584570656e+02
8.200000000000000000e+02	2.782787786090365785e+02
8.210000000000000000e+02	2.655484955635679967e+02
8.220000000000000000e+02	2.533225300836458018e+02
8.230000000000000000e+02	2.415850211014964088e+02
8.240000000000000000e+02	2.303203992506047371e+02
8.250000000000000000e+02	2.195133920837407686e+02
8.260000000000000000e+02	2.091490286019808877e+02
8.270000000000000000e+02	1.992126431186760556e+02
8.280000000000000000e+02	1.896898784825967823e+02
8.290000000000000000e+02	1.805666886846921955e+02
8.300000000000000000e+02	1.718293408730427245e+02
8.310000000000000000e+02	1.634644168006562666e+02
8.320000000000000000e+02	1.554588137307741533e+02
8.330000000000000000e+02	1.477997448242983012e+02
8.340000000000000000e+02	1.404747390338500850e+02
8.350000000000000000e+02	1.334716405288110366e+02
8.360000000000000000e+02	1.267786076754839968e+02
8.370000000000000000e+02	1.203841115962585917e+02
8.380000000000000000e+02	1.142769343313598114e+02
8.390000000000000000e+02	1.084461666264164279e+02
8.400000000000000000e+02	1.028812053687041868e+02
8.410000000000000000e+02	9.757175069449857574e+01
8.420000000000000000e+02	9.250780278952426272e+01
8.430000000000000000e+02	8.767965840400549382e+01
8.440000000000000000e+02	8.307790710331576634e+01
8.450000000000000000e+02	7.869342727469391718e+01
8.460000000000000000e+02	7.451738190993918920e+01
8.470000000000000000e+02	7.054121418342833749e+01
8.480000000000000000e+02	6.675664284420602712e+01
8.490000000000000000e+02	6.315565744030235606e+01
8.500000000000000000e+02	5.973051339281239080e+01
8.510000000000000000e+02	5.647372693665355570e+01
8.520000000000000000e+02	5.337806994428466822e+01
8.530000000000000000e+02	5.043656464803492412e+01
8.540000000000000000e+02	4.764247827605482399e+01
8.550000000000000000e+02	4.498931761625803460e+01
8.560000000000000000e+02	4.247082352198918187e+01
8.570000000000000000e+02	4.008096537251136482e+01
8.580000000000000000e+02	3.781393550077794430e+01
8.590000000000000000e+02	3.566414360032361941e+01
8.600000000000000000e+02	3.362621112249125588e+01
8.610000000000000000e+02	3.169496567459763625e+01
8.620000000000000000e+02	2.986543542903716286e+01
8.630000000000000000e+02	2.813284355273211901e+01
8.640000000000000000e+02	2.649260266575477729e+01
8.650000000000000000e+02	2.494030933737781908e+01
8.660000000000000000e+02	2.347173862725429316e+01
8.670000000000000000e+02	2.208283867888545871e+01
8.680000000000000000e+02	2.076972537200700231e+01
8.690000000000000000e+02	1.952867704001209859e+01
8.700000000000000000e+02	1.835612925803240358e+01
8.710000000000000000e+02	1.724866970681645029e+01
8.720000000000000000e+02	1.620303311708120830e+01
8.730000000000000000e+02	1.521609629856320289e+01
8.740000000000000000e+02	1.428487325756526261e+01
8.750000000000000000e+02	1.340651040637934521e+01
8.760000000000000000e+02	1.257828186757003053e+01
8.770000000000000000e+02	1.179758487572137859e+01
8.780000000000000000e+02	1.106193527888770056e+01
8.790000000000000000e+02	1.036896314164209265e+01
8.800000000000000000e+02	9.716408451287319892e+00
8.810000000000000000e+02	9.102116928480510794e+00
8.820000000000000000e+02	8.524035943227826095e+00
8.830000000000000000e+02	7.980210536924431608e+00
8.840000000000000000e+02	7.468779550851642135e+00
8.850000000000000000e+02	6.987971861294977494e+00
8.860000000000000000e+02	6.536102721213717714e+00
8.870000000000000000e+02	6.111570208174932795e+00
8.880000000000000000e+02	5.712851778061772912e+00
8.890000000000000000e+02	5.338500923876716264e+00
8.900000000000000000e+02	4.987143938785605357e+00
8.910000000000000000e+02	4.657476782386314795e+00
8.920000000000000000e+02	4.348262049037445287e+00
8.930000000000000000e+02	4.058326036946059645e+00
8.940000000000000000e+02	3.786555916589300796e+00
8.950000000000000000e+02	3.531896996932351929e+00
8.960000000000000000e+02	3.293350087803580184e+00
8.970000000000000000e+02	3.069968956697062712e+00
8.980000000000000000e+02	2.860857878192126336e+00
8.990000000000000000e+02	2.665169274108603048e+00
9.000000000000000000e+02	2.482101442455053153e+00
9.010000000000000000e+02	2.310896373174304852e+00
9.020000000000000000e+02	2.150837648646317657e+00
9.030000000000000000e+02	2.001248426871718777e+00
9.040000000000000000e+02	1.861489505230369490e+00
9.050000000000000000e+02	1.730957462687158666e+00
9.060000000000000000e+02	1.609082878301720365e+00
9.070000000000000000e+02	1.495328623889473407e+00
9.080000000000000000e+02	1.389188228677809889e+00
9.090000000000000000e+02	1.290184313803021565e+00
9.100000000000000000e+02	1.197867094500431051e+00
9.110000000000000000e+02	1.111812947851543276e+00
9.120000000000000000e+02	1.031623043967766495e+00
9.130000000000000000e+02	9.569220385098058390e-01
9.140000000000000000e+02	8.873568244650694714e-01
9.150000000000000000e+02	8.225953411318261965e-01
9.160000000000000000e+02	7.623254382883142277e-01
9.170000000000000000e+02	7.062537935570475378e-01
9.180000000000000000e+02	6.541048810090626109e-01
9.190000000000000000e+02	6.056199890894097271e-01
9.200000000000000000e+02	5.605562859837072143e-01
9.210000000000000000e+02	5.186859305856207358e-01
9.220000000000000000e+02	4.797952272666566875e-01
9.230000000000000000e+02	4.436838226923449091e-01
9.240000000000000000e+02	4.101639429725501551e-01
9.250000000000000000e+02	3.790596694781330767e-01
9.260000000000000000e+02	3.502062517012555776e-01
9.270000000000000000e+02	3.234494555821911255e-01
9.280000000000000000e+02	2.986449457713076239e-01
9.290000000000000000e+02	2.756577003409147464e-01
9.300000000000000000e+02	2.543614565076429135e-01
9.310000000000000000e+02	2.346381859719412766e-01
9.320000000000000000e+02	2.163775985269652813e-01
9.330000000000000000e+02	1.994766726344666674e-01
9.340000000000000000e+02	1.838392117102408130e-01
9.350000000000000000e+02	1.693754249061295847e-01
9.360000000000000000e+02	1.560015312193832604e-01
9.370000000000000000e+02	1.436393858034083482e-01
9.380000000000000000e+02	1.322161273963635697e-01
9.390000000000000000e+02	1.216638458257607858e-01
9.400000000000000000e+02	1.119192685880862348e-01
9.410000000000000000e+02	1.029234655424438455e-01
9.420000000000000000e+02	9.462157079629987533e-02
9.430000000000000000e+02	8.696252089955242015e-02
9.440000000000000000e+02	7.989880850032510251e-02
9.450000000000000000e+02	7.338625065206462461e-02
9.460000000000000000e+02	6.738377099671916115e-02
9.470000000000000000e+02	6.185319508292949631e-02
9.480000000000000000e+02	5.675905811131855966e-02
9.490000000000000000e+02	5.206842443107550372e-02
9.500000000000000000e+02	4.775071814311379614e-02
9.510000000000000000e+02	4.377756419513936792e-02
9.520000000000000000e+02	4.012263938299774624e-02
9.530000000000000000e+02	3.676153270068079071e-02
9.540000000000000000e+02	3.367161450838349751e-02
9.550000000000000000e+02	3.083191401401566556e-02
9.560000000000000000e+02	2.822300458860273198e-02
9.570000000000000000e+02	2.582689646007817197e-02
9.580000000000000000e+02	2.362693635309003060e-02
9.590000000000000000e+02	2.160771366462910237e-02
9.600000000000000000e+02	1.975497278656773714e-02
9.610000000000000000e+02	1.805553120658770147e-02
9.620000000000000000e+02	1.649720303849360956e-02
9.630000000000000000e+02	1.506872765158812771e-02
9.640000000000000000e+02	1.375970308663552501e-02
9.650000000000000000e+02	1.256052396299453359e-02
9.660000000000000000e+02	1.146232359777949426e-02
9.670000000000000000e+02	1.045692007343506681e-02
9.680000000000000000e+02	9.536766004907108046e-03
9.690000000000000000e+02	8.694901771688327494e-03
9.700000000000000000e+02	7.924911993431673490e-03
9.710000000000000000e+02	7.220885040584086242e-03
9.720000000000000000e+02	6.577375383621220616e-03
9.730000000000000000e+02	5.989368595983444142e-03
9.740000000000000000e+02	5.452248836747481883e-03
9.750000000000000000e+02	4.961768649441400912e-03
9.760000000000000000e+02	4.514020923243562862e-03
9.770000000000000000e+02	4.105412872121662338e-03
9.780000000000000000e+02	3.732641896289005772e-03
9.790000000000000000e+02	3.392673198699874392e-03
9.800000000000000000e+02	3.082719037198679291e-03
9.810000000000000000e+02	2.800219500395256106e-03
9.820000000000000000e+02	2.542824702383066592e-03
9.830000000000000000e+02	2.308378298066114144e-03
9.840000000000000000e+02	2.094902227133118786e-03
9.850000000000000000e+02	1.900582600631019149e-03
9.860000000000000000e+02	1.723756649662496008e-03
9.870000000000000000e+02	1.562900660979941883e-03
9.880000000000000000e+02	1.416618829187154399e-03
9.890000000000000000e+02	1.283632959906303361e-03
9.900000000000000000e+02	1.162772962635512820e-03
9.910000000000000000e+02	1.052968076126568420e-03
9.920000000000000000e+02	9.532387729665486474e-04
9.930000000000000000e+02	8.626892936647617043e-04
9.940000000000000000e+02	7.805007639398450292e-04
9.950000000000000000e+02	7.059248520838397106e-04
9.960000000000000000e+02	6.382779262615027481e-04
9.970000000000000000e+02	5.769356743956988902e-04
9.980000000000000000e+02	5.213281519038340684e-04
9.990000000000000000e+02	4.709352249960239447e-04
1.000000000000000000e+03	4.252823795328311866e-04
