4.410000000000000000e+02	2.099919338633276844e+00
4.420000000000000000e+02	2.257049543303600192e+00
4.430000000000000000e+02	2.425180861734321347e+00
4.440000000000000000e+02	2.605024029324226831e+00
4.450000000000000000e+02	2.797331244388697513e+00
4.460000000000000000e+02	3.002898270111165502e+00
4.470000000000000000e+02	3.222566621601972603e+00
4.480000000000000000e+02	3.457225840106059600e+00
4.490000000000000000e+02	3.707815856354461648e+00
4.500000000000000000e+02	3.975329444999161854e+00
4.510000000000000000e+02	4.260814772006318307e+00
4.520000000000000000e+02	4.565378036809191187e+00
4.530000000000000000e+02	4.890186210938002986e+00
4.540000000000000000e+02	5.236469874749521303e+00
4.550000000000000000e+02	5.605526153773840115e+00
4.560000000000000000e+02	5.998721756079010703e+00
4.570000000000000000e+02	6.417496111925208524e+00
4.580000000000000000e+02	6.863364616839164434e+00
4.590000000000000000e+02	7.337921979085463065e+00
4.600000000000000000e+02	7.842845672343893071e+00
4.610000000000000000e+02	8.379899494220961031e+00
4.620000000000000000e+02	8.950937231028351704e+00
4.630000000000000000e+02	9.557906429051215014e+00
4.640000000000000000e+02	1.020285227230386127e+01
4.650000000000000000e+02	1.088792156653077825e+01
4.660000000000000000e+02	1.161536682895384587e+01
4.670000000000000000e+02	1.238755048299516659e+01
4.680000000000000000e+02	1.320694915691616167e+01
4.690000000000000000e+02	1.407615808500801435e+01
4.700000000000000000e+02	1.499789560964687674e+01
4.710000000000000000e+02	1.597500778218819484e+01
4.720000000000000000e+02	1.701047306031731665e+01
4.730000000000000000e+02	1.810740709910102098e+01
4.740000000000000000e+02	1.926906763259286137e+01
4.750000000000000000e+02	2.049885944243701275e+01
4.760000000000000000e+02	2.180033940949343219e+01
4.770000000000000000e+02	2.317722164408486307e+01
4.780000000000000000e+02	2.463338269016278659e+01
4.790000000000000000e+02	2.617286679923840254e+01
4.800000000000000000e+02	2.779989127575151997e+01
4.810000000000000000e+02	2.951885193134579666e+01
4.820000000000000000e+02	3.133432887927213173e+01
4.830000000000000000e+02	3.325109386722508731e+01
4.840000000000000000e+02	3.527412482652021453e+01
4.850000000000000000e+02	3.740865257124374921e+01
4.860000000000000000e+02	3.966034128248909241e+01
4.870000000000000000e+02	4.203598696067017215e+01
4.880000000000000000e+02	4.454607809383195161e+01
4.890000000000000000e+02	4.721356184775894604e+01
4.900000000000000000e+02	5.010173414508352607e+01
4.910000000000000000e+02	5.339647899079188420e+01
4.920000000000000000e+02	5.763042047621998165e+01
4.930000000000000000e+02	6.424582401379025498e+01
4.940000000000000000e+02	7.689145430074071896e+01
4.950000000000000000e+02	1.041474323644746960e+02
4.960000000000000000e+02	1.647012037494747290e+02
4.970000000000000000e+02	2.961138743899729207e+02
4.980000000000000000e+02	5.677377077519156501e+02
4.990000000000000000e+02	1.096443678839688801e+03
5.000000000000000000e+02	2.060224111468126921e+03
5.010000000000000000e+02	3.700080925224927341e+03
5.020000000000000000e+02	6.297228796329404759e+03
5.030000000000000000e+02	1.011441612258890018e+04
5.040000000000000000e+02	1.530068497530733657e+04
5.050000000000000000e+02	2.177808174560303451e+04
5.060000000000000000e+02	2.915000942397702238e+04
5.070000000000000000e+02	3.668144831332380272e+04
5.080000000000000000e+02	4.338879556102745846e+04
5.090000000000000000e+02	4.823900700548870373e+04
5.100000000000000000e+02	5.040748426347299392e+04
5.110000000000000000e+02	4.950730339847935829e+04
5.120000000000000000e+02	4.570237462833578320e+04
5.130000000000000000e+02	3.965911421645707014e+04
5.140000000000000000e+02	3.235618372914069914e+04
5.150000000000000000e+02	2.482685157827360672e+04
5.160000000000000000e+02	1.792669833972493507e+04
5.170000000000000000e+02	1.219567638276493381e+04
5.180000000000000000e+02	7.835453264674198181e+03
5.190000000000000000e+02	4.777322423683935995e+03
5.200000000000000000e+02	2.792353659933492963e+03
5.210000000000000000e+02	1.597629489716597163e+03
5.220000000000000000e+02	9.309060399533834698e+02
5.230000000000000000e+02	5.872747028923342896e+02
5.240000000000000000e+02	4.258506345406907485e+02
5.250000000000000000e+02	3.595940845874300749e+02
5.260000000000000000e+02	3.396050111048713234e+02
5.270000000000000000e+02	3.407131104348978283e+02
5.280000000000000000e+02	3.509900741175953272e+02
5.290000000000000000e+02	3.652157991727075910e+02
5.300000000000000000e+02	3.812791115438752740e+02
5.310000000000000000e+02	3.983940265078217635e+02
5.320000000000000000e+02	4.162961143111526781e+02
5.330000000000000000e+02	4.349110621081532599e+02
5.340000000000000000e+02	4.542289302317016677e+02
5.350000000000000000e+02	4.742601057978561130e+02
5.360000000000000000e+02	4.950210126929719650e+02
5.370000000000000000e+02	5.165298018251248777e+02
5.380000000000000000e+02	5.388051332060706500e+02
5.390000000000000000e+02	5.618658445462277768e+02
5.400000000000000000e+02	5.857308551715599378e+02
5.410000000000000000e+02	6.104191274323120524e+02
5.420000000000000000e+02	6.359496405959854428e+02
5.430000000000000000e+02	6.623413666504600315e+02
5.440000000000000000e+02	6.896132457105217100e+02
5.450000000000000000e+02	7.177841605639067666e+02
5.460000000000000000e+02	7.468729102762225693e+02
5.470000000000000000e+02	7.768981828498548339e+02
5.480000000000000000e+02	8.078785269476832127e+02
5.490000000000000000e+02	8.398323226972535167e+02
5.500000000000000000e+02	8.727777515940862259e+02
5.510000000000000000e+02	9.067327655255980972e+02
5.520000000000000000e+02	9.417150549399572128e+02
5.530000000000000000e+02	9.777420161870127231e+02
5.540000000000000000e+02	1.014830718061383209e+03
5.550000000000000000e+02	1.052997867580696720e+03
5.560000000000000000e+02	1.092259775034963241e+03
5.570000000000000000e+02	1.132632318346038801e+03
5.580000000000000000e+02	1.174130906779153747e+03
5.590000000000000000e+02	1.216770444051482627e+03
5.600000000000000000e+02	1.260565290885753711e+03
5.610000000000000000e+02	1.305529227059879759e+03
5.620000000000000000e+02	1.351675413006577401e+03
5.630000000000000000e+02	1.399016351019908598e+03
5.640000000000000000e+02	1.447563846128558225e+03
5.650000000000000000e+02	1.497328966698553131e+03
5.660000000000000000e+02	1.548322004830924016e+03
5.670000000000000000e+02	1.600552436622545201e+03
5.680000000000000000e+02	1.654028882361064689e+03
5.690000000000000000e+02	1.708759066727378013e+03
5.700000000000000000e+02	1.764749779081609859e+03
5.710000000000000000e+02	1.822006833910904334e+03
5.720000000000000000e+02	1.880535031519577160e+03
5.730000000000000000e+02	1.940338119044297855e+03
5.740000000000000000e+02	2.001418751878953572e+03
5.750000000000000000e+02	2.063778455595642299e+03
5.760000000000000000e+02	2.127417588449948198e+03
5.770000000000000000e+02	2.192335304560102031e+03
5.780000000000000000e+02	2.258529517850968205e+03
5.790000000000000000e+02	2.325996866854926338e+03
5.800000000000000000e+02	2.394732680462615008e+03
5.810000000000000000e+02	2.464730944717248803e+03
5.820000000000000000e+02	2.535984270746720540e+03
5.830000000000000000e+02	2.608483863927946459e+03
5.840000000000000000e+02	2.682219494378016861e+03
5.850000000000000000e+02	2.757179468866465868e+03
5.860000000000000000e+02	2.833350604242591089e+03
5.870000000000000000e+02	2.910718202471024597e+03
5.880000000000000000e+02	2.989266027367857987e+03
5.890000000000000000e+02	3.068976283128402883e+03
5.900000000000000000e+02	3.149829594736205763e+03
5.910000000000000000e+02	3.231804990341221128e+03
5.920000000000000000e+02	3.314879885693041160e+03
5.930000000000000000e+02	3.399030070712810357e+03
5.940000000000000000e+02	3.484229698284924780e+03
5.950000000000000000e+02	3.570451275346800685e+03
5.960000000000000000e+02	3.657665656351909547e+03
5.970000000000000000e+02	3.745842039177954575e+03
5.980000000000000000e+02	3.834947963548418556e+03
5.990000000000000000e+02	3.924949312031867976e+03
6.000000000000000000e+02	4.015810313679245610e+03
6.010000000000000000e+02	4.107493550355015032e+03
6.020000000000000000e+02	4.199959965813389317e+03
6.030000000000000000e+02	4.293168877565998628e+03
6.040000000000000000e+02	4.387077991582278628e+03
6.050000000000000000e+02	4.481643419858517518e+03
6.060000000000000000e+02	4.576819700886011560e+03
6.070000000000000000e+02	4.672559823043005053e+03
6.080000000000000000e+02	4.768815250929219474e+03
6.090000000000000000e+02	4.865535954655668320e+03
6.100000000000000000e+02	4.962670442096215083e+03
6.110000000000000000e+02	5.060165794100915264e+03
6.120000000000000000e+02	5.157967702664694116e+03
6.130000000000000000e+02	5.256020512038219749e+03
6.140000000000000000e+02	5.354267262761129132e+03
6.150000000000000000e+02	5.452649738590926063e+03
6.160000000000000000e+02	5.551108516293947105e+03
6.170000000000000000e+02	5.649583018257922959e+03
6.180000000000000000e+02	5.748011567878627829e+03
6.190000000000000000e+02	5.846331447666175336e+03
6.200000000000000000e+02	5.944478960009558250e+03
6.210000000000000000e+02	6.042389490531071715e+03
6.220000000000000000e+02	6.139997573955402004e+03
6.230000000000000000e+02	6.237236962411370769e+03
6.240000000000000000e+02	6.334040696077544453e+03
6.250000000000000000e+02	6.430341176076394731e+03
6.260000000000000000e+02	6.526070239515171124e+03
6.270000000000000000e+02	6.621159236565346873e+03
6.280000000000000000e+02	6.715539109466356422e+03
6.290000000000000000e+02	6.809140473333395676e+03
6.300000000000000000e+02	6.901893698643302741e+03
6.310000000000000000e+02	6.993728995267066239e+03
6.320000000000000000e+02	7.084576497912217746e+03
6.330000000000000000e+02	7.174366352833417295e+03
6.340000000000000000e+02	7.263028805664822357e+03
6.350000000000000000e+02	7.350494290223454300e+03
6.360000000000000000e+02	7.436693518128719006e+03
6.370000000000000000e+02	7.521557569079483983e+03
6.380000000000000000e+02	7.605017981626745495e+03
6.390000000000000000e+02	7.687006844276936135e+03
6.400000000000000000e+02	7.767456886758222026e+03
6.410000000000000000e+02	7.846301571279990640e+03
6.420000000000000000e+02	7.923475183613780246e+03
6.430000000000000000e+02	7.998912923822555058e+03
6.440000000000000000e+02	8.072550996464191485e+03
6.450000000000000000e+02	8.144326700094416083e+03
6.460000000000000000e+02	8.214178515894349403e+03
6.470000000000000000e+02	8.282046195248029107e+03
6.480000000000000000e+02	8.347870846096060632e+03
6.490000000000000000e+02	8.411595017892646865e+03
6.500000000000000000e+02	8.473162784994930917e+03
6.510000000000000000e+02	8.532519828315555060e+03
6.520000000000000000e+02	8.589613515071896472e+03
6.530000000000000000e+02	8.644392976468310735e+03
6.540000000000000000e+02	8.696809183151091929e+03
6.550000000000000000e+02	8.746815018279663491e+03
6.560000000000000000e+02	8.794365348061637633e+03
6.570000000000000000e+02	8.839417089604070497e+03
6.580000000000000000e+02	8.881929275938182400e+03
6.590000000000000000e+02	8.921863118080224012e+03
6.600000000000000000e+02	8.959182063996919169e+03
6.610000000000000000e+02	8.993851854350048598e+03
6.620000000000000000e+02	9.025840574901174477e+03
6.630000000000000000e+02	9.055118705464330560e+03
6.640000000000000000e+02	9.081659165301553003e+03
6.650000000000000000e+02	9.105437354863552173e+03
6.660000000000000000e+02	9.126431193785469077e+03
6.670000000000000000e+02	9.144621155055552663e+03
6.680000000000000000e+02	9.159990295282761508e+03
6.690000000000000000e+02	9.172524280997595270e+03
6.700000000000000000e+02	9.182211410929023259e+03
6.710000000000000000e+02	9.189042634209028620e+03
6.720000000000000000e+02	9.193011564465134143e+03
6.730000000000000000e+02	9.194114489770179716e+03
6.740000000000000000e+02	9.192350378427669057e+03
6.750000000000000000e+02	9.187720880580052835e+03
6.760000000000000000e+02	9.180230325636419366e+03
6.770000000000000000e+02	9.169885715525262640e+03
6.780000000000000000e+02	9.156696713786976034e+03
6.790000000000000000e+02	9.140675630529907721e+03
6.800000000000000000e+02	9.121837403282755986e+03
6.810000000000000000e+02	9.100199573784966560e+03
6.820000000000000000e+02	9.075782260765648971e+03
6.830000000000000000e+02	9.048608128770127223e+03
6.840000000000000000e+02	9.018702353101740300e+03
6.850000000000000000e+02	8.986092580954798905e+03
6.860000000000000000e+02	8.950808888822717563e+03
6.870000000000000000e+02	8.912883736273124669e+03
6.880000000000000000e+02	8.872351916189449184e+03
6.890000000000000000e+02	8.829250501585691381e+03
6.900000000000000000e+02	8.783618789108211786e+03
6.910000000000000000e+02	8.735498239345019101e+03
6.920000000000000000e+02	8.684932414069449806e+03
6.930000000000000000e+02	8.631966910551169349e+03
6.940000000000000000e+02	8.576649293073100125e+03
6.950000000000000000e+02	8.519029021798154645e+03
6.960000000000000000e+02	8.459157379134594521e+03
6.970000000000000000e+02	8.397087393753365177e+03
6.980000000000000000e+02	8.332873762414772500e+03
6.990000000000000000e+02	8.266572769765654812e+03
7.000000000000000000e+02	8.198242206271372197e+03
7.010000000000000000e+02	8.127941284449841987e+03
7.020000000000000000e+02	8.055730553577136561e+03
7.030000000000000000e+02	7.981671813036205094e+03
7.040000000000000000e+02	7.905828024481719694e+03
7.050000000000000000e+02	7.828263222995121396e+03
7.060000000000000000e+02	7.749042427404600858e+03
7.070000000000000000e+02	7.668231549944862309e+03
7.080000000000000000e+02	7.585897305431319182e+03
7.090000000000000000e+02	7.502107120122668675e+03
7.100000000000000000e+02	7.416929040444669226e+03
7.110000000000000000e+02	7.330431641746429705e+03
7.120000000000000000e+02	7.242683937258587321e+03
7.130000000000000000e+02	7.153755287420398417e+03
7.140000000000000000e+02	7.063715309740066914e+03
7.150000000000000000e+02	6.972633789349521066e+03
7.160000000000000000e+02	6.880580590411388584e+03
7.170000000000000000e+02	6.787625568532131183e+03
7.180000000000000000e+02	6.693838484331117797e+03
7.190000000000000000e+02	6.599288918311010093e+03
7.200000000000000000e+02	6.504046187170009944e+03
7.210000000000000000e+02	6.408179261691535430e+03
7.220000000000000000e+02	6.311756686341523164e+03
7.230000000000000000e+02	6.214846500698050477e+03
7.240000000000000000e+02	6.117516162832125701e+03
7.250000000000000000e+02	6.019832474752556664e+03
7.260000000000000000e+02	5.921861510021582035e+03
7.270000000000000000e+02	5.823668543641611905e+03
7.280000000000000000e+02	5.725317984306904691e+03
7.290000000000000000e+02	5.626873309107416389e+03
7.300000000000000000e+02	5.528397000765263329e+03
7.310000000000000000e+02	5.429950487477452043e+03
7.320000000000000000e+02	5.331594085431628628e+03
7.330000000000000000e+02	5.233386944054652304e+03
7.340000000000000000e+02	5.135386994046828477e+03
7.350000000000000000e+02	5.037650898247689838e+03
7.360000000000000000e+02	4.940234005372210049e+03
7.370000000000000000e+02	4.843190306649456943e+03
7.380000000000000000e+02	4.746572395388769110e+03
7.390000000000000000e+02	4.650431429491753988e+03
7.400000000000000000e+02	4.554817096921708981e+03
7.410000000000000000e+02	4.459777584135368670e+03
7.420000000000000000e+02	4.365359547475491127e+03
7.430000000000000000e+02	4.271608087516332489e+03
7.440000000000000000e+02	4.178566726347913573e+03
7.450000000000000000e+02	4.086277387778907269e+03
7.460000000000000000e+02	3.994780380432099264e+03
7.470000000000000000e+02	3.904114383700704366e+03
7.480000000000000000e+02	3.814316436528351915e+03
7.490000000000000000e+02	3.725421928970261433e+03
7.500000000000000000e+02	3.637464596488105144e+03
7.510000000000000000e+02	3.550476516926244585e+03
7.520000000000000000e+02	3.464488110112443792e+03
7.530000000000000000e+02	3.379528140021842319e+03
7.540000000000000000e+02	3.295623719438906392e+03
7.550000000000000000e+02	3.212800317048244324e+03
7.560000000000000000e+02	3.131081766881640306e+03
7.570000000000000000e+02	3.050490280045370582e+03
7.580000000000000000e+02	2.971046458648820590e+03
7.590000000000000000e+02	2.892769311852736791e+03
7.600000000000000000e+02	2.815676273952903557e+03
7.610000000000000000e+02	2.739783224412869458e+03
7.620000000000000000e+02	2.665104509757414689e+03
7.630000000000000000e+02	2.591652967236755103e+03
7.640000000000000000e+02	2.519439950170113207e+03
7.650000000000000000e+02	2.448475354876123220e+03
7.660000000000000000e+02	2.378767649096666901e+03
7.670000000000000000e+02	2.310323901820112496e+03
7.680000000000000000e+02	2.243149814409552164e+03
7.690000000000000000e+02	2.177249752941490442e+03
7.700000000000000000e+02	2.112626781660550932e+03
7.710000000000000000e+02	2.049282697456093956e+03
7.720000000000000000e+02	1.987218065267183647e+03
7.730000000000000000e+02	1.926432254323123743e+03
7.740000000000000000e+02	1.866923475127741767e+03
7.750000000000000000e+02	1.808688817096768616e+03
7.760000000000000000e+02	1.751724286759029155e+03
7.770000000000000000e+02	1.696024846433676657e+03
7.780000000000000000e+02	1.641584453297406526e+03
7.790000000000000000e+02	1.588396098757465552e+03
7.800000000000000000e+02	1.536451848048247484e+03
7.810000000000000000e+02	1.485742879971431194e+03
7.820000000000000000e+02	1.436259526701898949e+03
7.830000000000000000e+02	1.387991313584029967e+03
7.840000000000000000e+02	1.340926998845502567e+03
7.850000000000000000e+02	1.295054613158293023e+03
7.860000000000000000e+02	1.250361498979266798e+03
7.870000000000000000e+02	1.206834349605497891e+03
7.880000000000000000e+02	1.164459247882275577e+03
7.890000000000000000e+02	1.123221704504639320e+03
7.900000000000000000e+02	1.083106695856190981e+03
7.910000000000000000e+02	1.044098701331911798e+03
7.920000000000000000e+02	1.006181740094677480e+03
7.930000000000000000e+02	9.693394072181737329e+02
7.940000000000000000e+02	9.335549091719307171e+02
7.950000000000000000e+02	8.988110986071981188e+02
7.960000000000000000e+02	8.650905084053874816e+02
7.970000000000000000e+02	8.323753849537962424e+02
7.980000000000000000e+02	8.006477206162908260e+02
7.990000000000000000e+02	7.698892853695514304e+02
8.000000000000000000e+02	7.400816575783841245e+02
8.010000000000000000e+02	7.112062538864491898e+02
8.020000000000000000e+02	6.832443582015464472e+02
8.030000000000000000e+02	6.561771497573553233e+02
8.040000000000000000e+02	6.299857302361948541e+02
8.050000000000000000e+02	6.046511499399812237e+02
8.060000000000000000e+02	5.801544329991111226e+02
8.070000000000000000e+02	5.564766016114599552e+02
8.080000000000000000e+02	5.335986993060637360e+02
8.090000000000000000e+02	5.115018132283749424e+02
8.100000000000000000e+02	4.901670954461819179e+02
8.110000000000000000e+02	4.695757832774201574e+02
8.120000000000000000e+02	4.497092186431501091e+02
8.130000000000000000e+02	4.305488664509059618e+02
8.140000000000000000e+02	4.120763320154903795e+02
8.150000000000000000e+02	3.942733775260344373e+02
8.160000000000000000e+02	3.771219375698173621e+02
8.170000000000000000e+02	3.606041337248901755e+02
8.180000000000000000e+02	3.447022882350333362e+02
8.190000000000000000e+02	3.293989367819394829e+02
8.200000000000000000e+02	3.146768403707924904e+02
8.210000000000000000e+02	3.005189963465966230e+02
8.220000000000000000e+02	2.869086485596965872e+02
8.230000000000000000e+02	2.738292966999193254e+02
8.240000000000000000e+02	2.612647048196742503e+02
8.250000000000000000e+02	2.491989090671597751e+02
8.260000000000000000e+02	2.376162246515463323e+02
8.270000000000000000e+02	2.265012520626413846e+02
8.280000000000000000e+02	2.158388825681018091e+02
8.290000000000000000e+02	2.056143030117229955e+02
8.300000000000000000e+02	1.958129999367298240e+02
8.310000000000000000e+02	1.864207630583110245e+02
8.320000000000000000e+02	1.774236881098787535e+02
8.330000000000000000e+02	1.688081790877048718e+02
8.340000000000000000e+02	1.605609499186913354e+02
8.350000000000000000e+02	1.526690255760668720e+02
8.360000000000000000e+02	1.451197426677777287e+02
8.370000000000000000e+02	1.379007495222570014e+02
8.380000000000000000e+02	1.310000057961178470e+02
8.390000000000000000e+02	1.244057816281231084e+02
8.400000000000000000e+02	1.181066563635386331e+02
8.410000000000000000e+02	1.120915168726957063e+02
8.420000000000000000e+02	1.063495554872479687e+02
8.430000000000000000e+02	1.008702675772399573e+02
8.440000000000000000e+02	9.564344879169546232e+01
8.450000000000000000e+02	9.065919198498465903e+01
8.460000000000000000e+02	8.590788385075899214e+01
8.470000000000000000e+02	8.138020128473553427e+01
8.480000000000000000e+02	7.706710749708361163e+01
8.490000000000000000e+02	7.295984789461397213e+01
8.500000000000000000e+02	6.904994575240037591e+01
8.510000000000000000e+02	6.532919769386884923e+01
8.520000000000000000e+02	6.178966899779131694e+01
8.530000000000000000e+02	5.842368874999612416e+01
8.540000000000000000e+02	5.522384485698687229e+01
8.550000000000000000e+02	5.218297893801995002e+01
8.560000000000000000e+02	4.929418111155419524e+01
8.570000000000000000e+02	4.655078469133864871e+01
8.580000000000000000e+02	4.394636080675964962e+01
8.590000000000000000e+02	4.147471296141984709e+01
8.600000000000000000e+02	3.912987154328018846e+01
8.610000000000000000e+02	3.690608829905252719e+01
8.620000000000000000e+02	3.479783078489509762e+01
8.630000000000000000e+02	3.279977680483577274e+01
8.640000000000000000e+02	3.090680884772358183e+01
8.650000000000000000e+02	2.911400853289877233e+01
8.660000000000000000e+02	2.741665107416996605e+01
8.670000000000000000e+02	2.581019977109424701e+01
8.680000000000000000e+02	2.429030053597996996e+01
8.690000000000000000e+02	2.285277646446598965e+01
8.700000000000000000e+02	2.149362245697923512e+01
8.710000000000000000e+02	2.020899989783672623e+01
8.720000000000000000e+02	1.899523139823702422e+01
8.730000000000000000e+02	1.784879560887896943e+01
8.740000000000000000e+02	1.676632210745780327e+01
8.750000000000000000e+02	1.574458636581505822e+01
8.760000000000000000e+02	1.478050480106221976e+01
8.770000000000000000e+02	1.387112991456000088e+01
8.780000000000000000e+02	1.301364552221272142e+01
8.790000000000000000e+02	1.220536207913304061e+01
8.800000000000000000e+02	1.144371210134519146e+01
8.810000000000000000e+02	1.072624568682546098e+01
8.820000000000000000e+02	1.005062613782587455e+01
8.830000000000000000e+02	9.414625686091934398e+00
8.840000000000000000e+02	8.816121322267546745e+00
8.850000000000000000e+02	8.253090730478129800e+00
8.860000000000000000e+02	7.723608328798709621e+00
8.870000000000000000e+02	7.225841416045271970e+00
8.880000000000000000e+02	6.758046425074843100e+00
8.890000000000000000e+02	6.318565282543374018e+00
8.900000000000000000e+02	5.905821874848936837e+00
8.910000000000000000e+02	5.518318619780873568e+00
8.920000000000000000e+02	5.154633143204105927e+00
8.930000000000000000e+02	4.813415059929323725e+00
8.940000000000000000e+02	4.493382857755813475e+00
8.950000000000000000e+02	4.193320883522752673e+00
8.960000000000000000e+02	3.912076429866132798e+00
8.970000000000000000e+02	3.648556921252903873e+00
8.980000000000000000e+02	3.401727197749563558e+00
8.990000000000000000e+02	3.170606894879558713e+00
9.000000000000000000e+02	2.954267917831997270e+00
9.010000000000000000e+02	2.751832008202586888e+00
9.020000000000000000e+02	2.562468401375882276e+00
9.030000000000000000e+02	2.385391572595871423e+00
9.040000000000000000e+02	2.219859069718435496e+00
9.050000000000000000e+02	2.065169430594464561e+00
9.060000000000000000e+02	1.920660182995630683e+00
9.070000000000000000e+02	1.785705924965493629e+00
9.080000000000000000e+02	1.659716483456567637e+00
9.090000000000000000e+02	1.542135149098498470e+00
9.100000000000000000e+02	1.432436984933399104e+00
9.110000000000000000e+02	1.330127206950961316e+00
9.120000000000000000e+02	1.234739634258211538e+00
9.130000000000000000e+02	1.145835206725897448e+00
9.140000000000000000e+02	1.063000567965314502e+00
9.150000000000000000e+02	9.858467115056590568e-01
9.160000000000000000e+02	9.140076880620109367e-01
9.170000000000000000e+02	8.471393718078945589e-01
9.180000000000000000e+02	7.849182835933272706e-01
9.190000000000000000e+02	7.270404690793756952e-01
9.200000000000000000e+02	6.732204297928960912e-01
9.210000000000000000e+02	6.231901051402723990e-01
9.220000000000000000e+02	5.766979034562252915e-01
9.230000000000000000e+02	5.335077802028533878e-01
9.240000000000000000e+02	4.933983614748539970e-01
9.250000000000000000e+02	4.561621110089770781e-01
9.260000000000000000e+02	4.216045389391198661e-01
9.270000000000000000e+02	3.895434505827774507e-01
9.280000000000000000e+02	3.598082335896101713e-01
9.290000000000000000e+02	3.322391818286137277e-01
9.300000000000000000e+02	3.066868544364848570e-01
9.310000000000000000e+02	2.830114684961495541e-01
9.320000000000000000e+02	2.610823238609835673e-01
9.330000000000000000e+02	2.407772586867398257e-01
9.340000000000000000e+02	2.219821342795898766e-01
9.350000000000000000e+02	2.045903479148558912e-01
9.360000000000000000e+02	1.885023723267664209e-01
9.370000000000000000e+02	1.736253206149238892e-01
9.380000000000000000e+02	1.598725353579957265e-01
9.390000000000000000e+02	1.471632007693182143e-01
9.400000000000000000e+02	1.354219767726180523e-01
9.410000000000000000e+02	1.245786539188247360e-01
9.420000000000000000e+02	1.145678281069034965e-01
9.430000000000000000e+02	1.053285941127471287e-01
9.440000000000000000e+02	9.680425697036781907e-02
9.450000000000000000e+02	8.894206028892343019e-02
9.460000000000000000e+02	8.169293062741675437e-02
9.470000000000000000e+02	7.501123708623207154e-02
9.480000000000000000e+02	6.885456531100081490e-02
9.490000000000000000e+02	6.318350513956874637e-02
9.500000000000000000e+02	5.796145115709671475e-02
9.510000000000000000e+02	5.315441545753839259e-02
9.520000000000000000e+02	4.873085194189975128e-02
9.530000000000000000e+02	4.466149151479701512e-02
9.540000000000000000e+02	4.091918757090223097e-02
9.550000000000000000e+02	3.747877119189269718e-02
9.560000000000000000e+02	3.431691550251493583e-02
9.570000000000000000e+02	3.141200866135609310e-02
9.580000000000000000e+02	2.874403498788035208e-02
9.590000000000000000e+02	2.629446375226328694e-02
9.600000000000000000e+02	2.404614517856049419e-02
9.610000000000000000e+02	2.198321323478361414e-02
9.620000000000000000e+02	2.009099480556035544e-02
9.630000000000000000e+02	1.835592486424001551e-02
9.640000000000000000e+02	1.676546728158989641e-02
9.650000000000000000e+02	1.530804092764188190e-02
9.660000000000000000e+02	1.397295074180902701e-02
9.670000000000000000e+02	1.275032346412301870e-02
9.680000000000000000e+02	1.163104773737376821e-02
9.690000000000000000e+02	1.060671830608075558e-02
9.700000000000000000e+02	9.669584053620490158e-03
9.710000000000000000e+02	8.812499633497419133e-03
9.720000000000000000e+02	8.028880464705600781e-03
9.730000000000000000e+02	7.312660874404415534e-03
9.740000000000000000e+02	6.658255183752876706e-03
9.750000000000000000e+02	6.060521544736204198e-03
9.760000000000000000e+02	5.514728347197997774e-03
9.770000000000000000e+02	5.016523026087338182e-03
9.780000000000000000e+02	4.561903109165152577e-03
9.790000000000000000e+02	4.147189355109569264e-03
9.800000000000000000e+02	3.769000841140855967e-03
9.810000000000000000e+02	3.424231867972486656e-03
9.820000000000000000e+02	3.110030558108774212e-03
9.830000000000000000e+02	2.823779031271199825e-03
9.840000000000000000e+02	2.563075048067003665e-03
9.850000000000000000e+02	2.325715019932172133e-03
9.860000000000000000e+02	2.109678289908236987e-03
9.870000000000000000e+02	1.913112594965485315e-03
9.880000000000000000e+02	1.734320626382401809e-03
9.890000000000000000e+02	1.571747610150287140e-03
9.900000000000000000e+02	1.423969834509555181e-03
9.910000000000000000e+02	1.289684056556128630e-03
9.920000000000000000e+02	1.167697724398575288e-03
9.930000000000000000e+02	1.056919955614213976e-03
9.940000000000000000e+02	9.563532167590984732e-04
9.950000000000000000e+02	8.650856524472899092e-04
9.960000000000000000e+02	7.822840160416921242e-04
9.970000000000000000e+02	7.071871573049899606e-04
9.980000000000000000e+02	6.391000254568099219e-04
9.990000000000000000e+02	5.773881489840867543e-04
1.000000000000000000e+03	5.214725562663080106e-04
