4.410000000000000000e+02	2.687422536151951391e+01
4.420000000000000000e+02	2.827253394439840406e+01
4.430000000000000000e+02	2.973666673081870826e+01
4.440000000000000000e+02	3.126933238999981057e+01
4.450000000000000000e+02	3.287333038007855635e+01
4.460000000000000000e+02	3.455155295082766997e+01
4.470000000000000000e+02	3.630698713846621928e+01
4.480000000000000000e+02	3.814271674929565137e+01
4.490000000000000000e+02	4.006192432874853182e+01
4.500000000000000000e+02	4.206789311228551753e+01
4.510000000000000000e+02	4.416400895442748009e+01
4.520000000000000000e+02	4.635376223205787483e+01
4.530000000000000000e+02	4.864074971798050484e+01
4.540000000000000000e+02	5.102867642056605035e+01
4.550000000000000000e+02	5.352135738517100805e+01
4.560000000000000000e+02	5.612271945286299513e+01
4.570000000000000000e+02	5.883680297183742880e+01
4.580000000000000000e+02	6.166776345676455406e+01
4.590000000000000000e+02	6.461987319116046535e+01
4.600000000000000000e+02	6.769752276773202482e+01
4.610000000000000000e+02	7.090522256150791236e+01
4.620000000000000000e+02	7.424760413042857010e+01
4.630000000000000000e+02	7.772942153793803755e+01
4.640000000000000000e+02	8.135555259198655165e+01
4.650000000000000000e+02	8.513099999473494961e+01
4.660000000000000000e+02	8.906089239712559902e+01
4.670000000000000000e+02	9.315048535237653482e+01
4.680000000000000000e+02	9.740516216234226476e+01
4.690000000000000000e+02	1.018304346105877585e+02
4.700000000000000000e+02	1.064319435759255015e+02
4.710000000000000000e+02	1.112154595200782268e+02
4.720000000000000000e+02	1.161868828430528282e+02
4.730000000000000000e+02	1.213522440997406306e+02
4.740000000000000000e+02	1.267177040711971756e+02
4.750000000000000000e+02	1.322895536840066484e+02
4.760000000000000000e+02	1.380742137710991528e+02
4.770000000000000000e+02	1.440782346674128860e+02
4.780000000000000000e+02	1.503082956341447982e+02
4.790000000000000000e+02	1.567712041078414131e+02
4.800000000000000000e+02	1.634738947863981195e+02
4.810000000000000000e+02	1.704234286565198886e+02
4.820000000000000000e+02	1.776269925692641891e+02
4.830000000000000000e+02	1.850919024989711659e+02
4.840000000000000000e+02	1.928256254190139884e+02
4.850000000000000000e+02	2.008358856411983027e+02
4.860000000000000000e+02	2.091311242842451747e+02
4.870000000000000000e+02	2.177223245851681384e+02
4.880000000000000000e+02	2.266297218553920345e+02
4.890000000000000000e+02	2.359056362324800489e+02
4.900000000000000000e+02	2.457062958684842613e+02
4.910000000000000000e+02	2.565002372289750383e+02
4.920000000000000000e+02	2.696244572293957731e+02
4.930000000000000000e+02	2.886441591264645012e+02
4.940000000000000000e+02	3.223821609469978853e+02
4.950000000000000000e+02	3.910215922679818732e+02
4.960000000000000000e+02	5.370893527434047883e+02
4.970000000000000000e+02	8.427600705088925679e+02
4.980000000000000000e+02	1.452777291515772504e+03
4.990000000000000000e+02	2.597467399726252097e+03
5.000000000000000000e+02	4.603122941165344855e+03
5.010000000000000000e+02	7.870334184866133910e+03
5.020000000000000000e+02	1.280052242424351425e+04
5.030000000000000000e+02	1.966364487545249358e+04
5.040000000000000000e+02	2.842797460551684708e+04
5.050000000000000000e+02	3.860784451382952830e+04
5.060000000000000000e+02	4.920784374608885992e+04
5.070000000000000000e+02	5.883005551369090244e+04
5.080000000000000000e+02	6.595587463468017813e+04
5.090000000000000000e+02	6.933351723923110694e+04
5.100000000000000000e+02	6.833751250258974324e+04
5.110000000000000000e+02	6.315871045865345513e+04
5.120000000000000000e+02	5.474565204756167077e+04
5.130000000000000000e+02	4.452199770786397858e+04
5.140000000000000000e+02	3.399545885268487473e+04
5.150000000000000000e+02	2.440500698532963361e+04
5.160000000000000000e+02	1.651536558353119472e+04
5.170000000000000000e+02	1.059001203333602461e+04
5.180000000000000000e+02	6.501078506116497010e+03
5.190000000000000000e+02	3.898771454904287566e+03
5.200000000000000000e+02	2.369097120149912826e+03
5.210000000000000000e+02	1.539848081142154115e+03
5.220000000000000000e+02	1.128378412698735247e+03
5.230000000000000000e+02	9.459518228215315503e+02
5.240000000000000000e+02	8.795081243825527508e+02
5.250000000000000000e+02	8.675834854846752933e+02
5.260000000000000000e+02	8.796309603847008702e+02
5.270000000000000000e+02	9.017030627918412620e+02
5.280000000000000000e+02	9.279294619441943723e+02
5.290000000000000000e+02	9.560280698748991881e+02
5.300000000000000000e+02	9.851794975611361451e+02
5.310000000000000000e+02	1.015113416970865046e+03
5.320000000000000000e+02	1.045749731675791509e+03
5.330000000000000000e+02	1.077069207101647635e+03
5.340000000000000000e+02	1.109070502921948673e+03
5.350000000000000000e+02	1.141756986925782712e+03
5.360000000000000000e+02	1.175132982768079273e+03
5.370000000000000000e+02	1.209202772348877033e+03
5.380000000000000000e+02	1.243970341362842646e+03
5.390000000000000000e+02	1.279439310464786331e+03
5.400000000000000000e+02	1.315612909443377475e+03
5.410000000000000000e+02	1.352493960686583932e+03
5.420000000000000000e+02	1.390084864568755620e+03
5.430000000000000000e+02	1.428387585279448558e+03
5.440000000000000000e+02	1.467403636833275186e+03
5.450000000000000000e+02	1.507134069234244635e+03
5.460000000000000000e+02	1.547579454810092329e+03
5.470000000000000000e+02	1.588739874739319930e+03
5.480000000000000000e+02	1.630614905795088816e+03
5.490000000000000000e+02	1.673203607330529167e+03
5.500000000000000000e+02	1.716504508530336807e+03
5.510000000000000000e+02	1.760515595953715547e+03
5.520000000000000000e+02	1.805234301393929400e+03
5.530000000000000000e+02	1.850657490079845729e+03
5.540000000000000000e+02	1.896781449244943815e+03
5.550000000000000000e+02	1.943601877089305162e+03
5.560000000000000000e+02	1.991113872160103483e+03
5.570000000000000000e+02	2.039311923176049049e+03
5.580000000000000000e+02	2.088189899321151643e+03
5.590000000000000000e+02	2.137741041033004421e+03
5.600000000000000000e+02	2.187957951310602311e+03
5.610000000000000000e+02	2.238832587566429993e+03
5.620000000000000000e+02	2.290356254047273069e+03
5.630000000000000000e+02	2.342519594847819462e+03
5.640000000000000000e+02	2.395312587540728600e+03
5.650000000000000000e+02	2.448724537446344584e+03
5.660000000000000000e+02	2.502744072564739781e+03
5.670000000000000000e+02	2.557359139192162274e+03
5.680000000000000000e+02	2.612556998243365797e+03
5.690000000000000000e+02	2.668324222300559995e+03
5.700000000000000000e+02	2.724646693409040836e+03
5.710000000000000000e+02	2.781509601638703316e+03
5.720000000000000000e+02	2.838897444429827374e+03
5.730000000000000000e+02	2.896794026740617483e+03
5.740000000000000000e+02	2.955182462013005079e+03
5.750000000000000000e+02	3.014045173972246175e+03
5.760000000000000000e+02	3.073363899274759660e+03
5.770000000000000000e+02	3.133119691017571313e+03
5.780000000000000000e+02	3.193292923121568492e+03
5.790000000000000000e+02	3.253863295599563571e+03
5.800000000000000000e+02	3.314809840718940904e+03
5.810000000000000000e+02	3.376110930067362460e+03
5.820000000000000000e+02	3.437744282528685289e+03
5.830000000000000000e+02	3.499686973174883406e+03
5.840000000000000000e+02	3.561915443078368298e+03
5.850000000000000000e+02	3.624405510047660300e+03
5.860000000000000000e+02	3.687132380287898741e+03
5.870000000000000000e+02	3.750070660986196799e+03
5.880000000000000000e+02	3.813194373820300370e+03
5.890000000000000000e+02	3.876476969387488225e+03
5.900000000000000000e+02	3.939891342549068668e+03
5.910000000000000000e+02	4.003409848684254939e+03
5.920000000000000000e+02	4.067004320845587245e+03
5.930000000000000000e+02	4.130646087806472678e+03
5.940000000000000000e+02	4.194305992989786319e+03
5.950000000000000000e+02	4.257954414264850129e+03
5.960000000000000000e+02	4.321561284598484235e+03
5.970000000000000000e+02	4.385096113544196669e+03
5.980000000000000000e+02	4.448528009551950163e+03
5.990000000000000000e+02	4.511825703079348386e+03
6.000000000000000000e+02	4.574957570483461495e+03
6.010000000000000000e+02	4.637891658670938341e+03
6.020000000000000000e+02	4.700595710482494724e+03
6.030000000000000000e+02	4.763037190786299107e+03
6.040000000000000000e+02	4.825183313253274719e+03
6.050000000000000000e+02	4.887001067785864507e+03
6.060000000000000000e+02	4.948457248570309275e+03
6.070000000000000000e+02	5.009518482721113287e+03
6.080000000000000000e+02	5.070151259484977345e+03
6.090000000000000000e+02	5.130321959970134230e+03
6.100000000000000000e+02	5.189996887365758994e+03
6.110000000000000000e+02	5.249142297614876952e+03
6.120000000000000000e+02	5.307724430502995347e+03
6.130000000000000000e+02	5.365709541123601412e+03
6.140000000000000000e+02	5.423063931680547284e+03
6.150000000000000000e+02	5.479753983586402683e+03
6.160000000000000000e+02	5.535746189814843092e+03
6.170000000000000000e+02	5.591007187464354502e+03
6.180000000000000000e+02	5.645503790489663515e+03
6.190000000000000000e+02	5.699203022556643191e+03
6.200000000000000000e+02	5.752072149975712819e+03
6.210000000000000000e+02	5.804078714668286011e+03
6.220000000000000000e+02	5.855190567120223022e+03
6.230000000000000000e+02	5.905375899275892152e+03
6.240000000000000000e+02	5.954603277326124044e+03
6.250000000000000000e+02	6.002841674343049817e+03
6.260000000000000000e+02	6.050060502714705763e+03
6.270000000000000000e+02	6.096229646332199081e+03
6.280000000000000000e+02	6.141319492482230089e+03
6.290000000000000000e+02	6.185300963397900887e+03
6.300000000000000000e+02	6.228145547420925141e+03
6.310000000000000000e+02	6.269825329728614633e+03
6.320000000000000000e+02	6.310313022579430253e+03
6.330000000000000000e+02	6.349581995031326187e+03
6.340000000000000000e+02	6.387606302087659060e+03
6.350000000000000000e+02	6.424360713226087682e+03
6.360000000000000000e+02	6.459820740266624853e+03
6.370000000000000000e+02	6.493962664535783915e+03
6.380000000000000000e+02	6.526763563284693191e+03
6.390000000000000000e+02	6.558201335320022736e+03
6.400000000000000000e+02	6.588254725807623799e+03
6.410000000000000000e+02	6.616903350209948258e+03
6.420000000000000000e+02	6.644127717319512158e+03
6.430000000000000000e+02	6.669909251352005413e+03
6.440000000000000000e+02	6.694230313063964786e+03
6.450000000000000000e+02	6.717074219861464371e+03
6.460000000000000000e+02	6.738425264867679289e+03
6.470000000000000000e+02	6.758268734918867267e+03
6.480000000000000000e+02	6.776590927459886188e+03
6.490000000000000000e+02	6.793379166312081907e+03
6.500000000000000000e+02	6.808621816288167793e+03
6.510000000000000000e+02	6.822308296630493714e+03
6.520000000000000000e+02	6.834429093250986625e+03
6.530000000000000000e+02	6.844975769752932138e+03
6.540000000000000000e+02	6.853940977216732790e+03
6.550000000000000000e+02	6.861318462733745037e+03
6.560000000000000000e+02	6.867103076674336080e+03
6.570000000000000000e+02	6.871290778678306197e+03
6.580000000000000000e+02	6.873878642357961326e+03
6.590000000000000000e+02	6.874864858706127961e+03
6.600000000000000000e+02	6.874248738203597895e+03
6.610000000000000000e+02	6.872030711622530362e+03
6.620000000000000000e+02	6.868212329524519191e+03
6.630000000000000000e+02	6.862796260454146250e+03
6.640000000000000000e+02	6.855786287830950641e+03
6.650000000000000000e+02	6.847187305544901392e+03
6.660000000000000000e+02	6.837005312262535881e+03
6.670000000000000000e+02	6.825247404453046329e+03
6.680000000000000000e+02	6.811921768145661190e+03
6.690000000000000000e+02	6.797037669431724680e+03
6.700000000000000000e+02	6.780605443726900376e+03
6.710000000000000000e+02	6.762636483810918435e+03
6.720000000000000000e+02	6.743143226664243230e+03
6.730000000000000000e+02	6.722139139122945380e+03
6.740000000000000000e+02	6.699638702374947570e+03
6.750000000000000000e+02	6.675657395322627963e+03
6.760000000000000000e+02	6.650211676838530366e+03
6.770000000000000000e+02	6.623318966942659245e+03
6.780000000000000000e+02	6.594997626931494779e+03
6.790000000000000000e+02	6.565266938490439316e+03
6.800000000000000000e+02	6.534147081822962718e+03
6.810000000000000000e+02	6.501659112831162020e+03
6.820000000000000000e+02	6.467824939383834135e+03
6.830000000000000000e+02	6.432667296709510083e+03
6.840000000000000000e+02	6.396209721953095141e+03
6.850000000000000000e+02	6.358476527935970807e+03
6.860000000000000000e+02	6.319492776160452195e+03
6.870000000000000000e+02	6.279284249100548550e+03
6.880000000000000000e+02	6.237877421821838652e+03
6.890000000000000000e+02	6.195299432974144111e+03
6.900000000000000000e+02	6.151578055201420284e+03
6.910000000000000000e+02	6.106741665013934835e+03
6.920000000000000000e+02	6.060819212168392369e+03
6.930000000000000000e+02	6.013840188602128364e+03
6.940000000000000000e+02	5.965834596967913967e+03
6.950000000000000000e+02	5.916832918816171514e+03
6.960000000000000000e+02	5.866866082471696245e+03
6.970000000000000000e+02	5.815965430651999668e+03
6.980000000000000000e+02	5.764162687874541007e+03
6.990000000000000000e+02	5.711489927699954023e+03
7.000000000000000000e+02	5.657979539858342832e+03
7.010000000000000000e+02	5.603664197305396556e+03
7.020000000000000000e+02	5.548576823254863484e+03
7.030000000000000000e+02	5.492750558233436095e+03
7.040000000000000000e+02	5.436218727203718117e+03
7.050000000000000000e+02	5.379014806800300903e+03
7.060000000000000000e+02	5.321172392723433404e+03
7.070000000000000000e+02	5.262725167333984245e+03
7.080000000000000000e+02	5.203706867492664060e+03
7.090000000000000000e+02	5.144151252685601321e+03
7.100000000000000000e+02	5.084092073477442682e+03
7.110000000000000000e+02	5.023563040332177479e+03
7.120000000000000000e+02	4.962597792840810143e+03
7.130000000000000000e+02	4.901229869393900117e+03
7.140000000000000000e+02	4.839492677335850203e+03
7.150000000000000000e+02	4.777419463636532782e+03
7.160000000000000000e+02	4.715043286114650073e+03
7.170000000000000000e+02	4.652396985245822179e+03
7.180000000000000000e+02	4.589513156587099729e+03
7.190000000000000000e+02	4.526424123848135423e+03
7.200000000000000000e+02	4.463161912637835485e+03
7.210000000000000000e+02	4.399758224913807680e+03
7.220000000000000000e+02	4.336244414160441011e+03
7.230000000000000000e+02	4.272651461319876944e+03
7.240000000000000000e+02	4.209009951498614100e+03
7.250000000000000000e+02	4.145350051470857579e+03
7.260000000000000000e+02	4.081701487998170705e+03
7.270000000000000000e+02	4.018093526983355787e+03
7.280000000000000000e+02	3.954554953474860667e+03
7.290000000000000000e+02	3.891114052536414420e+03
7.300000000000000000e+02	3.827798590994932965e+03
7.310000000000000000e+02	3.764635800078130615e+03
7.320000000000000000e+02	3.701652358951655060e+03
7.330000000000000000e+02	3.638874379163916274e+03
7.340000000000000000e+02	3.576327390005238613e+03
7.350000000000000000e+02	3.514036324786299701e+03
7.360000000000000000e+02	3.452025508039322176e+03
7.370000000000000000e+02	3.390318643643879113e+03
7.380000000000000000e+02	3.328938803877674673e+03
7.390000000000000000e+02	3.267908419391158532e+03
7.400000000000000000e+02	3.207249270103338858e+03
7.410000000000000000e+02	3.146982477014747019e+03
7.420000000000000000e+02	3.087128494932071590e+03
7.430000000000000000e+02	3.027707106097625910e+03
7.440000000000000000e+02	2.968737414715467821e+03
7.450000000000000000e+02	2.910237842364701010e+03
7.460000000000000000e+02	2.852226124289235031e+03
7.470000000000000000e+02	2.794719306552072339e+03
7.480000000000000000e+02	2.737733744041026057e+03
7.490000000000000000e+02	2.681285099311663089e+03
7.500000000000000000e+02	2.625388342252188068e+03
7.510000000000000000e+02	2.570057750553985443e+03
7.520000000000000000e+02	2.515306910970546596e+03
7.530000000000000000e+02	2.461148721346616185e+03
7.540000000000000000e+02	2.407595393398512897e+03
7.550000000000000000e+02	2.354658456225784448e+03
7.560000000000000000e+02	2.302348760533592213e+03
7.570000000000000000e+02	2.250676483544518760e+03
7.580000000000000000e+02	2.199651134577860375e+03
7.590000000000000000e+02	2.149281561273849547e+03
7.600000000000000000e+02	2.099575956439747642e+03
7.610000000000000000e+02	2.050541865494227750e+03
7.620000000000000000e+02	2.002186194486081376e+03
7.630000000000000000e+02	1.954515218662868847e+03
7.640000000000000000e+02	1.907534591564842458e+03
7.650000000000000000e+02	1.861249354619188125e+03
7.660000000000000000e+02	1.815663947209425487e+03
7.670000000000000000e+02	1.770782217194625218e+03
7.680000000000000000e+02	1.726607431853020898e+03
7.690000000000000000e+02	1.683142289224491151e+03
7.700000000000000000e+02	1.640388929826402546e+03
7.710000000000000000e+02	1.598348948717323537e+03
7.720000000000000000e+02	1.557023407883194977e+03
7.730000000000000000e+02	1.516412848920673696e+03
7.740000000000000000e+02	1.476517305992528236e+03
7.750000000000000000e+02	1.437336319030177037e+03
7.760000000000000000e+02	1.398868947158701303e+03
7.770000000000000000e+02	1.361113782319962866e+03
7.780000000000000000e+02	1.324068963069773417e+03
7.790000000000000000e+02	1.287732188525429137e+03
7.800000000000000000e+02	1.252100732440314232e+03
7.810000000000000000e+02	1.217171457382705967e+03
7.820000000000000000e+02	1.182940828996372375e+03
7.830000000000000000e+02	1.149404930321035408e+03
7.840000000000000000e+02	1.116559476151291392e+03
7.850000000000000000e+02	1.084399827413110870e+03
7.860000000000000000e+02	1.052921005537611336e+03
7.870000000000000000e+02	1.022117706812362826e+03
7.880000000000000000e+02	9.919843166911075514e+02
7.890000000000000000e+02	9.625149240433803470e+02
7.900000000000000000e+02	9.337033353261584807e+02
7.910000000000000000e+02	9.055430886603177214e+02
7.920000000000000000e+02	8.780274677953357241e+02
7.930000000000000000e+02	8.511495159463592017e+02
7.940000000000000000e+02	8.249020494884214258e+02
7.950000000000000000e+02	7.992776714933074800e+02
7.960000000000000000e+02	7.742687850952390818e+02
7.970000000000000000e+02	7.498676066722649693e+02
7.980000000000000000e+02	7.260661788309341773e+02
7.990000000000000000e+02	7.028563831825426860e+02
8.000000000000000000e+02	6.802299528999348013e+02
8.010000000000000000e+02	6.581784850445553730e+02
8.020000000000000000e+02	6.366934526541292598e+02
8.030000000000000000e+02	6.157662165820523796e+02
8.040000000000000000e+02	5.953880370802565949e+02
8.050000000000000000e+02	5.755500851179925803e+02
8.060000000000000000e+02	5.562434534296434094e+02
8.070000000000000000e+02	5.374591672853500768e+02
8.080000000000000000e+02	5.191881949788729571e+02
8.090000000000000000e+02	5.014214580277595701e+02
8.100000000000000000e+02	4.841498410815104876e+02
8.110000000000000000e+02	4.673642015340557805e+02
8.120000000000000000e+02	4.510553788374484725e+02
8.130000000000000000e+02	4.352142035142719578e+02
8.140000000000000000e+02	4.198315058668195547e+02
8.150000000000000000e+02	4.048981243816674578e+02
8.160000000000000000e+02	3.904049138287949177e+02
8.170000000000000000e+02	3.763427530549197400e+02
8.180000000000000000e+02	3.627025524712259426e+02
8.190000000000000000e+02	3.494752612361423303e+02
8.200000000000000000e+02	3.366518741342900398e+02
8.210000000000000000e+02	3.242234381531721397e+02
8.220000000000000000e+02	3.121810587595950324e+02
8.230000000000000000e+02	3.005159058782300008e+02
8.240000000000000000e+02	2.892192195751024428e+02
8.250000000000000000e+02	2.782823154491711648e+02
8.260000000000000000e+02	2.676965897355063930e+02
8.270000000000000000e+02	2.574535241239078687e+02
8.280000000000000000e+02	2.475446902971116572e+02
8.290000000000000000e+02	2.379617541930292361e+02
8.300000000000000000e+02	2.286964799957313232e+02
8.310000000000000000e+02	2.197407338601440756e+02
8.320000000000000000e+02	2.110864873756582085e+02
8.330000000000000000e+02	2.027258207740683815e+02
8.340000000000000000e+02	1.946509258874560828e+02
8.350000000000000000e+02	1.868541088618100616e+02
8.360000000000000000e+02	1.793277926323394809e+02
8.370000000000000000e+02	1.720645191665789753e+02
8.380000000000000000e+02	1.650569514815124137e+02
8.390000000000000000e+02	1.582978754410554245e+02
8.400000000000000000e+02	1.517802013403267267e+02
8.410000000000000000e+02	1.454969652832241707e+02
8.420000000000000000e+02	1.394413303598799700e+02
8.430000000000000000e+02	1.336065876306226983e+02
8.440000000000000000e+02	1.279861569231081262e+02
8.450000000000000000e+02	1.225735874493025648e+02
8.460000000000000000e+02	1.173625582490115846e+02
8.470000000000000000e+02	1.123468784666430764e+02
8.480000000000000000e+02	1.075204874678766060e+02
8.490000000000000000e+02	1.028774548028874705e+02
8.500000000000000000e+02	9.841198002272938083e+01
8.510000000000000000e+02	9.411839235543720861e+01
8.520000000000000000e+02	8.999115024834800636e+01
8.530000000000000000e+02	8.602484078307398363e+01
8.540000000000000000e+02	8.221417896948113935e+01
8.550000000000000000e+02	7.855400692494559678e+01
8.560000000000000000e+02	7.503929294506458803e+01
8.570000000000000000e+02	7.166513047190014163e+01
8.580000000000000000e+02	6.842673696572757081e+01
8.590000000000000000e+02	6.531945268614700240e+01
8.600000000000000000e+02	6.233873938829869132e+01
8.610000000000000000e+02	5.948017893980015458e+01
8.620000000000000000e+02	5.673947186389278841e+01
8.630000000000000000e+02	5.411243581415657644e+01
8.640000000000000000e+02	5.159500398601258553e+01
8.650000000000000000e+02	4.918322347009561213e+01
8.660000000000000000e+02	4.687325355243655167e+01
8.670000000000000000e+02	4.466136396624939664e+01
8.680000000000000000e+02	4.254393309997188766e+01
8.690000000000000000e+02	4.051744616606027449e+01
8.700000000000000000e+02	3.857849333488870514e+01
8.710000000000000000e+02	3.672376783795571242e+01
8.720000000000000000e+02	3.495006404444619363e+01
8.730000000000000000e+02	3.325427551504974133e+01
8.740000000000000000e+02	3.163339303678284153e+01
8.750000000000000000e+02	3.008450264241341543e+01
8.760000000000000000e+02	2.860478361793620294e+01
8.770000000000000000e+02	2.719150650139859238e+01
8.780000000000000000e+02	2.584203107622939299e+01
8.790000000000000000e+02	2.455380436207692441e+01
8.800000000000000000e+02	2.332435860601872335e+01
8.810000000000000000e+02	2.215130927686244888e+01
8.820000000000000000e+02	2.103235306511835034e+01
8.830000000000000000e+02	1.996526589108434990e+01
8.840000000000000000e+02	1.894790092335076537e+01
8.850000000000000000e+02	1.797818660989796768e+01
8.860000000000000000e+02	1.705412472383066813e+01
8.870000000000000000e+02	1.617378842566520447e+01
8.880000000000000000e+02	1.533532034396210086e+01
8.890000000000000000e+02	1.453693067597516730e+01
8.900000000000000000e+02	1.377689530987030686e+01
8.910000000000000000e+02	1.305355396995294548e+01
8.920000000000000000e+02	1.236530838623137463e+01
8.930000000000000000e+02	1.171062048953561785e+01
8.940000000000000000e+02	1.108801063330682091e+01
8.950000000000000000e+02	1.049605584307141015e+01
8.960000000000000000e+02	9.933388094516248046e+00
8.970000000000000000e+02	9.398692620987633362e+00
8.980000000000000000e+02	8.890706251145873651e+00
8.990000000000000000e+02	8.408215777420583237e+00
9.000000000000000000e+02	7.950056355828070132e+00
9.010000000000000000e+02	7.515109937632231230e+00
9.020000000000000000e+02	7.102303733253870988e+00
9.030000000000000000e+02	6.710608708759974839e+00
9.040000000000000000e+02	6.339038115194838063e+00
9.050000000000000000e+02	5.986646050948614572e+00
9.060000000000000000e+02	5.652526057295336415e+00
9.070000000000000000e+02	5.335809747172993056e+00
9.080000000000000000e+02	5.035665467221215330e+00
9.090000000000000000e+02	4.751296993038642391e+00
9.100000000000000000e+02	4.481942257571556176e+00
9.110000000000000000e+02	4.226872112497723322e+00
9.120000000000000000e+02	3.985389122424801922e+00
9.130000000000000000e+02	3.756826391680928356e+00
9.140000000000000000e+02	3.540546423436068846e+00
9.150000000000000000e+02	3.335940010856373927e+00
9.160000000000000000e+02	3.142425159960106740e+00
9.170000000000000000e+02	2.959446043812597793e+00
9.180000000000000000e+02	2.786471987668799777e+00
9.190000000000000000e+02	2.622996484645927939e+00
9.200000000000000000e+02	2.468536241484278193e+00
9.210000000000000000e+02	2.322630253932789657e+00
9.220000000000000000e+02	2.184838911275864159e+00
9.230000000000000000e+02	2.054743129500507415e+00
9.240000000000000000e+02	1.931943512586827838e+00
9.250000000000000000e+02	1.816059541391274790e+00
9.260000000000000000e+02	1.706728789579729400e+00
9.270000000000000000e+02	1.603606166057130356e+00
9.280000000000000000e+02	1.506363183331697719e+00
9.290000000000000000e+02	1.414687251244331589e+00
9.300000000000000000e+02	1.328280995488219096e+00
9.310000000000000000e+02	1.246861600339070675e+00
9.320000000000000000e+02	1.170160175013494452e+00
9.330000000000000000e+02	1.097921143071101557e+00
9.340000000000000000e+02	1.029901654275235723e+00
9.350000000000000000e+02	9.658710183277487982e-01
9.360000000000000000e+02	9.056101598945556219e-01
9.370000000000000000e+02	8.489110943412780941e-01
9.380000000000000000e+02	7.955764236014518653e-01
9.390000000000000000e+02	7.454188516040644030e-01
9.400000000000000000e+02	6.982607186920073428e-01
9.410000000000000000e+02	6.539335544687461255e-01
9.420000000000000000e+02	6.122776485168021088e-01
9.430000000000000000e+02	5.731416384385107365e-01
9.440000000000000000e+02	5.363821146770865189e-01
9.450000000000000000e+02	5.018632415838812921e-01
9.460000000000000000e+02	4.694563942062440209e-01
9.470000000000000000e+02	4.390398102791819301e-01
9.480000000000000000e+02	4.104982569132311077e-01
9.490000000000000000e+02	3.837227114804890316e-01
9.500000000000000000e+02	3.586100562105418166e-01
9.510000000000000000e+02	3.350627860181137896e-01
9.520000000000000000e+02	3.129887290944772249e-01
9.530000000000000000e+02	2.923007798051551198e-01
9.540000000000000000e+02	2.729166434469781910e-01
9.550000000000000000e+02	2.547585924282824710e-01
9.560000000000000000e+02	2.377532334467831465e-01
9.570000000000000000e+02	2.218312852505002764e-01
9.580000000000000000e+02	2.069273665779620963e-01
9.590000000000000000e+02	1.929797938847686023e-01
9.600000000000000000e+02	1.799303884744500870e-01
9.610000000000000000e+02	1.677242926623553065e-01
9.620000000000000000e+02	1.563097946120504678e-01
9.630000000000000000e+02	1.456381614943902669e-01
9.640000000000000000e+02	1.356634806299949203e-01
9.650000000000000000e+02	1.263425082863486593e-01
9.660000000000000000e+02	1.176345258110831488e-01
9.670000000000000000e+02	1.095012027932338455e-01
9.680000000000000000e+02	1.019064669543236906e-01
9.690000000000000000e+02	9.481638048105922589e-02
9.700000000000000000e+02	8.819902252116602892e-02
9.710000000000000000e+02	8.202437757347864900e-02
9.720000000000000000e+02	7.626422951279823725e-02
9.730000000000000000e+02	7.089206099923818505e-02
9.740000000000000000e+02	6.588295803080954083e-02
9.750000000000000000e+02	6.121351940680582610e-02
9.760000000000000000e+02	5.686177087817926440e-02
9.770000000000000000e+02	5.280708376950841304e-02
9.780000000000000000e+02	4.903009786537119996e-02
9.790000000000000000e+02	4.551264836193166102e-02
9.800000000000000000e+02	4.223769669233925356e-02
9.810000000000000000e+02	3.918926504211876771e-02
9.820000000000000000e+02	3.635237437808858801e-02
9.830000000000000000e+02	3.371298582150595441e-02
9.840000000000000000e+02	3.125794520307563495e-02
9.850000000000000000e+02	2.897493064419626174e-02
9.860000000000000000e+02	2.685240301534205093e-02
9.870000000000000000e+02	2.487955912880042073e-02
9.880000000000000000e+02	2.304628752909885711e-02
9.890000000000000000e+02	2.134312675037251458e-02
9.900000000000000000e+02	1.976122591563854447e-02
9.910000000000000000e+02	1.829230755846408124e-02
9.920000000000000000e+02	1.692863255284465795e-02
9.930000000000000000e+02	1.566296704224767397e-02
9.940000000000000000e+02	1.448855126373196738e-02
9.950000000000000000e+02	1.339907016782569682e-02
9.960000000000000000e+02	1.238862573944152917e-02
9.970000000000000000e+02	1.145171092952931326e-02
9.980000000000000000e+02	1.058318511141811968e-02
9.990000000000000000e+02	9.778250979887171887e-03
1.000000000000000000e+03	9.032432814929956810e-03
