4.410000000000000000e+02	1.607409672039663207e+01
4.420000000000000000e+02	1.699713105509607658e+01
4.430000000000000000e+02	1.796844907924976553e+01
4.440000000000000000e+02	1.899028523166691684e+01
4.450000000000000000e+02	2.006496039512592233e+01
4.460000000000000000e+02	2.119488430516729949e+01
4.470000000000000000e+02	2.238255797557625115e+01
4.480000000000000000e+02	2.363057613757109365e+01
4.490000000000000000e+02	2.494162968951820503e+01
4.500000000000000000e+02	2.631850815379748454e+01
4.510000000000000000e+02	2.776410213723811538e+01
4.520000000000000000e+02	2.928140579133999566e+01
4.530000000000000000e+02	3.087351926828703697e+01
4.540000000000000000e+02	3.254365116854550166e+01
4.550000000000000000e+02	3.429512097562773931e+01
4.560000000000000000e+02	3.613136147338323667e+01
4.570000000000000000e+02	3.805592114096204881e+01
4.580000000000000000e+02	4.007246652037383683e+01
4.590000000000000000e+02	4.218478455134803085e+01
4.600000000000000000e+02	4.439678486797567558e+01
4.610000000000000000e+02	4.671250205139615730e+01
4.620000000000000000e+02	4.913609783256970331e+01
4.630000000000000000e+02	5.167186323895712263e+01
4.640000000000000000e+02	5.432422067871330285e+01
4.650000000000000000e+02	5.709772595578257892e+01
4.660000000000000000e+02	5.999707020907693789e+01
4.670000000000000000e+02	6.302708176870504531e+01
4.680000000000000000e+02	6.619272792202065148e+01
4.690000000000000000e+02	6.949911658205941478e+01
4.700000000000000000e+02	7.295149785073884630e+01
4.710000000000000000e+02	7.655526546901452889e+01
4.720000000000000000e+02	8.031595814600284200e+01
4.730000000000000000e+02	8.423926075891532150e+01
4.740000000000000000e+02	8.833100541548512297e+01
4.750000000000000000e+02	9.259717237042325166e+01
4.760000000000000000e+02	9.704389078732594953e+01
4.770000000000000000e+02	1.016774393375467866e+02
4.780000000000000000e+02	1.065042466289075094e+02
4.790000000000000000e+02	1.115308914665834976e+02
4.800000000000000000e+02	1.167641030057854863e+02
4.810000000000000000e+02	1.222107611761340422e+02
4.820000000000000000e+02	1.278778994194438070e+02
4.830000000000000000e+02	1.337727197840979727e+02
4.840000000000000000e+02	1.399026661241375109e+02
4.850000000000000000e+02	1.462757485646907014e+02
4.860000000000000000e+02	1.529018743494840180e+02
4.870000000000000000e+02	1.597979130648377577e+02
4.880000000000000000e+02	1.670055820228506320e+02
4.890000000000000000e+02	1.746499632038752168e+02
4.900000000000000000e+02	1.831165724285100964e+02
4.910000000000000000e+02	1.935456978573728293e+02
4.920000000000000000e+02	2.091016357538833574e+02
4.930000000000000000e+02	2.379569767818852313e+02
4.940000000000000000e+02	2.996800925540744629e+02
4.950000000000000000e+02	4.375718803802380990e+02
4.960000000000000000e+02	7.398694378008020749e+02
4.970000000000000000e+02	1.371389325950736520e+03
4.980000000000000000e+02	2.612462232878043778e+03
4.990000000000000000e+02	4.892876659566776652e+03
5.000000000000000000e+02	8.796563044897007785e+03
5.010000000000000000e+02	1.500400189980954383e+04
5.020000000000000000e+02	2.414408027765889710e+04
5.030000000000000000e+02	3.655478485248091602e+04
5.040000000000000000e+02	5.200217077671450534e+04
5.050000000000000000e+02	6.946112841603405832e+04
5.060000000000000000e+02	8.708573198802176921e+04
5.070000000000000000e+02	1.024595869238641608e+05
5.080000000000000000e+02	1.131136802992356970e+05
5.090000000000000000e+02	1.171699884338220290e+05
5.100000000000000000e+02	1.138825612281585054e+05
5.110000000000000000e+02	1.038622865388886712e+05
5.120000000000000000e+02	8.889244320412211528e+04
5.130000000000000000e+02	7.141142794308313751e+04
5.140000000000000000e+02	5.386846170473601524e+04
5.150000000000000000e+02	3.818433189141099137e+04
5.160000000000000000e+02	2.547095514196603835e+04
5.170000000000000000e+02	1.603528742905190484e+04
5.180000000000000000e+02	9.584982321004748883e+03
5.190000000000000000e+02	5.508631231460944036e+03
5.200000000000000000e+02	3.122578893601978962e+03
5.210000000000000000e+02	1.829051082440799291e+03
5.220000000000000000e+02	1.181965904443184854e+03
5.230000000000000000e+02	8.870336447046836383e+02
5.240000000000000000e+02	7.694874937847068850e+02
5.250000000000000000e+02	7.349040694809002616e+02
5.260000000000000000e+02	7.365523673806824263e+02
5.270000000000000000e+02	7.531482172725741293e+02
5.280000000000000000e+02	7.757414005205024523e+02
5.290000000000000000e+02	8.008500642650407144e+02
5.300000000000000000e+02	8.272206963360113150e+02
5.310000000000000000e+02	8.544372426420636657e+02
5.320000000000000000e+02	8.823746028106791073e+02
5.330000000000000000e+02	9.110012124670161029e+02
5.340000000000000000e+02	9.403132575424727975e+02
5.350000000000000000e+02	9.703143947988723994e+02
5.360000000000000000e+02	1.001009950545166134e+03
5.370000000000000000e+02	1.032405370946226640e+03
5.380000000000000000e+02	1.064505827288319551e+03
5.390000000000000000e+02	1.097316112008203163e+03
5.400000000000000000e+02	1.130840602666334917e+03
5.410000000000000000e+02	1.165083240692721120e+03
5.420000000000000000e+02	1.200047513157133608e+03
5.430000000000000000e+02	1.235736435172255369e+03
5.440000000000000000e+02	1.272152532497297443e+03
5.450000000000000000e+02	1.309297824290678136e+03
5.460000000000000000e+02	1.347173806029683874e+03
5.470000000000000000e+02	1.385781432627150480e+03
5.480000000000000000e+02	1.425121101777599051e+03
5.490000000000000000e+02	1.465192637566037547e+03
5.500000000000000000e+02	1.505995274373135317e+03
5.510000000000000000e+02	1.547527641110913692e+03
5.520000000000000000e+02	1.589787745823412251e+03
5.530000000000000000e+02	1.632772960687109617e+03
5.540000000000000000e+02	1.676480007446061791e+03
5.550000000000000000e+02	1.720904943316903200e+03
5.560000000000000000e+02	1.766043147398910378e+03
5.570000000000000000e+02	1.811889307624343473e+03
5.580000000000000000e+02	1.858437408284215962e+03
5.590000000000000000e+02	1.905680718164490827e+03
5.600000000000000000e+02	1.953611779327487966e+03
5.610000000000000000e+02	2.002222396572967000e+03
5.620000000000000000e+02	2.051503627612984928e+03
5.630000000000000000e+02	2.101445773994150841e+03
5.640000000000000000e+02	2.152038372800347588e+03
5.650000000000000000e+02	2.203270189168373236e+03
5.660000000000000000e+02	2.255129209648204778e+03
5.670000000000000000e+02	2.307602636438819445e+03
5.680000000000000000e+02	2.360676882529601244e+03
5.690000000000000000e+02	2.414337567776377909e+03
5.700000000000000000e+02	2.468569515940104793e+03
5.710000000000000000e+02	2.523356752715036691e+03
5.720000000000000000e+02	2.578682504772030370e+03
5.730000000000000000e+02	2.634529199841291756e+03
5.740000000000000000e+02	2.690878467857508895e+03
5.750000000000000000e+02	2.747711143188836559e+03
5.760000000000000000e+02	2.805007267969649092e+03
5.770000000000000000e+02	2.862746096555356871e+03
5.780000000000000000e+02	2.920906101115906949e+03
5.790000000000000000e+02	2.979464978382775371e+03
5.800000000000000000e+02	3.038399657562478751e+03
5.810000000000000000e+02	3.097686309427688684e+03
5.820000000000000000e+02	3.157300356595108042e+03
5.830000000000000000e+02	3.217216484997197313e+03
5.840000000000000000e+02	3.277408656552823231e+03
5.850000000000000000e+02	3.337850123039726896e+03
5.860000000000000000e+02	3.398513441169556700e+03
5.870000000000000000e+02	3.459370488863989976e+03
5.880000000000000000e+02	3.520392482728207142e+03
5.890000000000000000e+02	3.581549996715700672e+03
5.900000000000000000e+02	3.642812981976080664e+03
5.910000000000000000e+02	3.704150787875185870e+03
5.920000000000000000e+02	3.765532184174470331e+03
5.930000000000000000e+02	3.826925384354242397e+03
5.940000000000000000e+02	3.888298070062954139e+03
5.950000000000000000e+02	3.949617416672375839e+03
5.960000000000000000e+02	4.010850119916064614e+03
5.970000000000000000e+02	4.071962423586220211e+03
5.980000000000000000e+02	4.132920148261619033e+03
5.990000000000000000e+02	4.193688721036995048e+03
6.000000000000000000e+02	4.254233206221942964e+03
6.010000000000000000e+02	4.314518336975109378e+03
6.020000000000000000e+02	4.374508547837222977e+03
6.030000000000000000e+02	4.434168008124316657e+03
6.040000000000000000e+02	4.493460656140332503e+03
6.050000000000000000e+02	4.552350234166235168e+03
6.060000000000000000e+02	4.610800324180704592e+03
6.070000000000000000e+02	4.668774384265555454e+03
6.080000000000000000e+02	4.726235785647100784e+03
6.090000000000000000e+02	4.783147850322896375e+03
6.100000000000000000e+02	4.839473889221580066e+03
6.110000000000000000e+02	4.895177240841857383e+03
6.120000000000000000e+02	4.950221310315162555e+03
6.130000000000000000e+02	5.004569608835095096e+03
6.140000000000000000e+02	5.058185793395337896e+03
6.150000000000000000e+02	5.111033706776600411e+03
6.160000000000000000e+02	5.163077417721940947e+03
6.170000000000000000e+02	5.214281261238878869e+03
6.180000000000000000e+02	5.264609878965764437e+03
6.190000000000000000e+02	5.314028259539159080e+03
6.200000000000000000e+02	5.362501778898305929e+03
6.210000000000000000e+02	5.409996240462282913e+03
6.220000000000000000e+02	5.456477915115036012e+03
6.230000000000000000e+02	5.501913580933273806e+03
6.240000000000000000e+02	5.546270562592048918e+03
6.250000000000000000e+02	5.589516770382923823e+03
6.260000000000000000e+02	5.631620738779767635e+03
6.270000000000000000e+02	5.672551664487508788e+03
6.280000000000000000e+02	5.712279443909647853e+03
6.290000000000000000e+02	5.750774709970903132e+03
6.300000000000000000e+02	5.788008868232052919e+03
6.310000000000000000e+02	5.823954132234940516e+03
6.320000000000000000e+02	5.858583558016568531e+03
6.330000000000000000e+02	5.891871077732347658e+03
6.340000000000000000e+02	5.923791532329833899e+03
6.350000000000000000e+02	5.954320703215667891e+03
6.360000000000000000e+02	5.983435342859976117e+03
6.370000000000000000e+02	6.011113204284109088e+03
6.380000000000000000e+02	6.037333069379401422e+03
6.390000000000000000e+02	6.062074776006501452e+03
6.400000000000000000e+02	6.085319243826835191e+03
6.410000000000000000e+02	6.107048498819892302e+03
6.420000000000000000e+02	6.127245696442233566e+03
6.430000000000000000e+02	6.145895143386468590e+03
6.440000000000000000e+02	6.162982317900839917e+03
6.450000000000000000e+02	6.178493888632603557e+03
6.460000000000000000e+02	6.192417731960975289e+03
6.470000000000000000e+02	6.204742947788093261e+03
6.480000000000000000e+02	6.215459873759203219e+03
6.490000000000000000e+02	6.224560097886110270e+03
6.500000000000000000e+02	6.232036469550787842e+03
6.510000000000000000e+02	6.237883108869023090e+03
6.520000000000000000e+02	6.242095414396907472e+03
6.530000000000000000e+02	6.244670069166050780e+03
6.540000000000000000e+02	6.245605045036424599e+03
6.550000000000000000e+02	6.244899605358856206e+03
6.560000000000000000e+02	6.242554305942257088e+03
6.570000000000000000e+02	6.238570994323832565e+03
6.580000000000000000e+02	6.232952807343587665e+03
6.590000000000000000e+02	6.225704167027617586e+03
6.600000000000000000e+02	6.216830774787711562e+03
6.610000000000000000e+02	6.206339603947955766e+03
6.620000000000000000e+02	6.194238890612014984e+03
6.630000000000000000e+02	6.180538122887868667e+03
6.640000000000000000e+02	6.165248028489707394e+03
6.650000000000000000e+02	6.148380560739686189e+03
6.660000000000000000e+02	6.129948882995103304e+03
6.670000000000000000e+02	6.109967351529392545e+03
6.680000000000000000e+02	6.088451496898106598e+03
6.690000000000000000e+02	6.065418003823747313e+03
6.700000000000000000e+02	6.040884689635896393e+03
6.710000000000000000e+02	6.014870481305662906e+03
6.720000000000000000e+02	5.987395391115870552e+03
6.730000000000000000e+02	5.958480491010745936e+03
6.740000000000000000e+02	5.928147885671147378e+03
6.750000000000000000e+02	5.896420684363451983e+03
6.760000000000000000e+02	5.863322971612293259e+03
6.770000000000000000e+02	5.828879776749196935e+03
6.780000000000000000e+02	5.793117042391018003e+03
6.790000000000000000e+02	5.756061591903665430e+03
6.800000000000000000e+02	5.717741095908233547e+03
6.810000000000000000e+02	5.678184037887980594e+03
6.820000000000000000e+02	5.637419678955950076e+03
6.830000000000000000e+02	5.595478021844141949e+03
6.840000000000000000e+02	5.552389774176143874e+03
6.850000000000000000e+02	5.508186311086052228e+03
6.860000000000000000e+02	5.462899637247184728e+03
6.870000000000000000e+02	5.416562348374771318e+03
6.880000000000000000e+02	5.369207592267182008e+03
6.890000000000000000e+02	5.320869029450634116e+03
6.900000000000000000e+02	5.271580793492492376e+03
6.910000000000000000e+02	5.221377451048288094e+03
6.920000000000000000e+02	5.170293961707553535e+03
6.930000000000000000e+02	5.118365637703274842e+03
6.940000000000000000e+02	5.065628103549462139e+03
6.950000000000000000e+02	5.012117255670807936e+03
6.960000000000000000e+02	4.957869222087810158e+03
6.970000000000000000e+02	4.902920322219973059e+03
6.980000000000000000e+02	4.847307026868836147e+03
6.990000000000000000e+02	4.791065918441592657e+03
7.000000000000000000e+02	4.734233651474963153e+03
7.010000000000000000e+02	4.676846913517745634e+03
7.020000000000000000e+02	4.618942386429167527e+03
7.030000000000000000e+02	4.560556708148724283e+03
7.040000000000000000e+02	4.501726434991644965e+03
7.050000000000000000e+02	4.442488004522530900e+03
7.060000000000000000e+02	4.382877699057969949e+03
7.070000000000000000e+02	4.322931609847164509e+03
7.080000000000000000e+02	4.262685601977690567e+03
7.090000000000000000e+02	4.202175280051607842e+03
7.100000000000000000e+02	4.141435954675076573e+03
7.110000000000000000e+02	4.080502609802578718e+03
7.120000000000000000e+02	4.019409870974701334e+03
7.130000000000000000e+02	3.958191974486246181e+03
7.140000000000000000e+02	3.896882737519207694e+03
7.150000000000000000e+02	3.835515529272855474e+03
7.160000000000000000e+02	3.774123243120913230e+03
7.170000000000000000e+02	3.712738269823415976e+03
7.180000000000000000e+02	3.651392471818545800e+03
7.190000000000000000e+02	3.590117158617310452e+03
7.200000000000000000e+02	3.528943063321614773e+03
7.210000000000000000e+02	3.467900320283821202e+03
7.220000000000000000e+02	3.407018443923579525e+03
7.230000000000000000e+02	3.346326308715278628e+03
7.240000000000000000e+02	3.285852130357140595e+03
7.250000000000000000e+02	3.225623448130618272e+03
7.260000000000000000e+02	3.165667108456453207e+03
7.270000000000000000e+02	3.106009249651419850e+03
7.280000000000000000e+02	3.046675287887580453e+03
7.290000000000000000e+02	2.987689904353580459e+03
7.300000000000000000e+02	2.929077033615408254e+03
7.310000000000000000e+02	2.870859853171837585e+03
7.320000000000000000e+02	2.813060774197752835e+03
7.330000000000000000e+02	2.755701433466470462e+03
7.340000000000000000e+02	2.698802686440249545e+03
7.350000000000000000e+02	2.642384601516229850e+03
7.360000000000000000e+02	2.586466455413235053e+03
7.370000000000000000e+02	2.531066729683066114e+03
7.380000000000000000e+02	2.476203108328222697e+03
7.390000000000000000e+02	2.421892476506360708e+03
7.400000000000000000e+02	2.368150920300227881e+03
7.410000000000000000e+02	2.314993727530338674e+03
7.420000000000000000e+02	2.262435389586262772e+03
7.430000000000000000e+02	2.210489604251071341e+03
7.440000000000000000e+02	2.159169279492246005e+03
7.450000000000000000e+02	2.108486538191213185e+03
7.460000000000000000e+02	2.058452723782590056e+03
7.470000000000000000e+02	2.009078406773229972e+03
7.480000000000000000e+02	1.960373392110292343e+03
7.490000000000000000e+02	1.912346727366696086e+03
7.500000000000000000e+02	1.865006711711628213e+03
7.510000000000000000e+02	1.818360905633111088e+03
7.520000000000000000e+02	1.772416141379077771e+03
7.530000000000000000e+02	1.727178534082926490e+03
7.540000000000000000e+02	1.682653493539117108e+03
7.550000000000000000e+02	1.638845736594088521e+03
7.560000000000000000e+02	1.595759300117504154e+03
7.570000000000000000e+02	1.553397554518705647e+03
7.580000000000000000e+02	1.511763217773154111e+03
7.590000000000000000e+02	1.470858369923657165e+03
7.600000000000000000e+02	1.430684468021229350e+03
7.610000000000000000e+02	1.391242361470579681e+03
7.620000000000000000e+02	1.352532307745431808e+03
7.630000000000000000e+02	1.314553988439161685e+03
7.640000000000000000e+02	1.277306525616559838e+03
7.650000000000000000e+02	1.240788498432949609e+03
7.660000000000000000e+02	1.204997959987327476e+03
7.670000000000000000e+02	1.169932454376734086e+03
7.680000000000000000e+02	1.135589033919605299e+03
7.690000000000000000e+02	1.101964276516498558e+03
7.700000000000000000e+02	1.069054303117233303e+03
7.710000000000000000e+02	1.036854795264217501e+03
7.720000000000000000e+02	1.005361012682468754e+03
7.730000000000000000e+02	9.745678108876400074e+02
7.740000000000000000e+02	9.444696587841817745e+02
7.750000000000000000e+02	9.150606562266422088e+02
7.760000000000000000e+02	8.863345515179852327e+02
7.770000000000000000e+02	8.582847588197346340e+02
7.780000000000000000e+02	8.309043754496817655e+02
7.790000000000000000e+02	8.041861990438691237e+02
7.800000000000000000e+02	7.781227445605297817e+02
7.810000000000000000e+02	7.527062611046674192e+02
7.820000000000000000e+02	7.279287485529542892e+02
7.830000000000000000e+02	7.037819739596664022e+02
7.840000000000000000e+02	6.802574877253679233e+02
7.850000000000000000e+02	6.573466395111092879e+02
7.860000000000000000e+02	6.350405938819197900e+02
7.870000000000000000e+02	6.133303456644142670e+02
7.880000000000000000e+02	5.922067350043454326e+02
7.890000000000000000e+02	5.716604621109718209e+02
7.900000000000000000e+02	5.516821016761094825e+02
7.910000000000000000e+02	5.322621169567501056e+02
7.920000000000000000e+02	5.133908735111097030e+02
7.930000000000000000e+02	4.950586525789614143e+02
7.940000000000000000e+02	4.772556640980649263e+02
7.950000000000000000e+02	4.599720593494440095e+02
7.960000000000000000e+02	4.431979432252042557e+02
7.970000000000000000e+02	4.269233861134823087e+02
7.980000000000000000e+02	4.111384353960040698e+02
7.990000000000000000e+02	3.958331265545983229e+02
8.000000000000000000e+02	3.809974938838408320e+02
8.010000000000000000e+02	3.666215808078343343e+02
8.020000000000000000e+02	3.526954497999009845e+02
8.030000000000000000e+02	3.392091919047389297e+02
8.040000000000000000e+02	3.261529358633194988e+02
8.050000000000000000e+02	3.135168568415130039e+02
8.060000000000000000e+02	3.012911847641046279e+02
8.070000000000000000e+02	2.894662122565132449e+02
8.080000000000000000e+02	2.780323021971351523e+02
8.090000000000000000e+02	2.669798948838368347e+02
8.100000000000000000e+02	2.562995148186637380e+02
8.110000000000000000e+02	2.459817771153699937e+02
8.120000000000000000e+02	2.360173935348659882e+02
8.130000000000000000e+02	2.263971781541487189e+02
8.140000000000000000e+02	2.171120526747190524e+02
8.150000000000000000e+02	2.081530513768919946e+02
8.160000000000000000e+02	1.995113257267872768e+02
8.170000000000000000e+02	1.911781486431349606e+02
8.180000000000000000e+02	1.831449184313474916e+02
8.190000000000000000e+02	1.754031623926024963e+02
8.200000000000000000e+02	1.679445401159406401e+02
8.210000000000000000e+02	1.607608464616205026e+02
8.220000000000000000e+02	1.538440142441791636e+02
8.230000000000000000e+02	1.471861166238287240e+02
8.240000000000000000e+02	1.407793692149761569e+02
8.250000000000000000e+02	1.346161319207872111e+02
8.260000000000000000e+02	1.286889105028190556e+02
8.270000000000000000e+02	1.229903578948355971e+02
8.280000000000000000e+02	1.175132752699773988e+02
8.290000000000000000e+02	1.122506128705018540e+02
8.300000000000000000e+02	1.071954706093271597e+02
8.310000000000000000e+02	1.023410984526148297e+02
8.320000000000000000e+02	9.768089659260618873e+01
8.330000000000000000e+02	9.320841541989075552e+01
8.340000000000000000e+02	8.891735530423157741e+01
8.350000000000000000e+02	8.480156619300102250e+01
8.360000000000000000e+02	8.085504703619471911e+01
8.370000000000000000e+02	7.707194504689219627e+01
8.380000000000000000e+02	7.344655480591663377e+01
8.390000000000000000e+02	6.997331721932378912e+01
8.400000000000000000e+02	6.664681833720489124e+01
8.410000000000000000e+02	6.346178804214785174e+01
8.420000000000000000e+02	6.041309861553276761e+01
8.430000000000000000e+02	5.749576318967694988e+01
8.440000000000000000e+02	5.470493409366113724e+01
8.450000000000000000e+02	5.203590110048879325e+01
8.460000000000000000e+02	4.948408958303635075e+01
8.470000000000000000e+02	4.704505858605514845e+01
8.480000000000000000e+02	4.471449882128391806e+01
8.490000000000000000e+02	4.248823059252205780e+01
8.500000000000000000e+02	4.036220165730398435e+01
8.510000000000000000e+02	3.833248503159920517e+01
8.520000000000000000e+02	3.639527674374691202e+01
8.530000000000000000e+02	3.454689354361430986e+01
8.540000000000000000e+02	3.278377057274775552e+01
8.550000000000000000e+02	3.110245900106545491e+01
8.560000000000000000e+02	2.949962363541846244e+01
8.570000000000000000e+02	2.797204050512680240e+01
8.580000000000000000e+02	2.651659442937679145e+01
8.590000000000000000e+02	2.513027657114765034e+01
8.600000000000000000e+02	2.381018198211788572e+01
8.610000000000000000e+02	2.255350714278747049e+01
8.620000000000000000e+02	2.135754750183953021e+01
8.630000000000000000e+02	2.021969501855535611e+01
8.640000000000000000e+02	1.913743571189092307e+01
8.650000000000000000e+02	1.810834721961970573e+01
8.660000000000000000e+02	1.713009637074819125e+01
8.670000000000000000e+02	1.620043677421513095e+01
8.680000000000000000e+02	1.531720642669499810e+01
8.690000000000000000e+02	1.447832534214047051e+01
8.700000000000000000e+02	1.368179320551616485e+01
8.710000000000000000e+02	1.292568705300072907e+01
8.720000000000000000e+02	1.220815898076100581e+01
8.730000000000000000e+02	1.152743388423701099e+01
8.740000000000000000e+02	1.088180722971391923e+01
8.750000000000000000e+02	1.026964285980186276e+01
8.760000000000000000e+02	9.689370834293308477e+00
8.770000000000000000e+02	9.139485307722502228e+00
8.780000000000000000e+02	8.618542444811787107e+00
8.790000000000000000e+02	8.125158374854777321e+00
8.800000000000000000e+02	7.658007185957844243e+00
8.810000000000000000e+02	7.215818959937323918e+00
8.820000000000000000e+02	6.797377848552269342e+00
8.830000000000000000e+02	6.401520191639332502e+00
8.840000000000000000e+02	6.027132677609159828e+00
8.850000000000000000e+02	5.673150546661631211e+00
8.860000000000000000e+02	5.338555836979913316e+00
8.870000000000000000e+02	5.022375674071972718e+00
8.880000000000000000e+02	4.723680603340802087e+00
8.890000000000000000e+02	4.441582965883253742e+00
8.900000000000000000e+02	4.175235317439856431e+00
8.910000000000000000e+02	3.923828890346012344e+00
8.920000000000000000e+02	3.686592098266901818e+00
8.930000000000000000e+02	3.462789083435519721e+00
8.940000000000000000e+02	3.251718306054064200e+00
8.950000000000000000e+02	3.052711175464479787e+00
8.960000000000000000e+02	2.865130722643280503e+00
8.970000000000000000e+02	2.688370313529278022e+00
8.980000000000000000e+02	2.521852402650106129e+00
8.990000000000000000e+02	2.365027326474344882e+00
9.000000000000000000e+02	2.217372135880661066e+00
9.010000000000000000e+02	2.078389467103326727e+00
9.020000000000000000e+02	1.947606450484667295e+00
9.030000000000000000e+02	1.824573656339470551e+00
9.040000000000000000e+02	1.708864077213754218e+00
9.050000000000000000e+02	1.600072145800602641e+00
9.060000000000000000e+02	1.497812787758759701e+00
9.070000000000000000e+02	1.401720508665366793e+00
9.080000000000000000e+02	1.311448514322306025e+00
9.090000000000000000e+02	1.226667863626018873e+00
9.100000000000000000e+02	1.147066653203447251e+00
9.110000000000000000e+02	1.072349233011353320e+00
9.120000000000000000e+02	1.002235452093161561e+00
9.130000000000000000e+02	9.364599336858788758e-01
9.140000000000000000e+02	8.747713788701012572e-01
9.150000000000000000e+02	8.169318979579618389e-01
9.160000000000000000e+02	7.627163688173003164e-01
9.170000000000000000e+02	7.119118213352499946e-01
9.180000000000000000e+02	6.643168472305041039e-01
9.190000000000000000e+02	6.197410344308884600e-01
9.200000000000000000e+02	5.780044252413133465e-01
9.210000000000000000e+02	5.389369975366350429e-01
9.220000000000000000e+02	5.023781682243069202e-01
9.230000000000000000e+02	4.681763182329333750e-01
9.240000000000000000e+02	4.361883382947959742e-01
9.250000000000000000e+02	4.062791948030778366e-01
9.260000000000000000e+02	3.783215150377138292e-01
9.270000000000000000e+02	3.521951910676297537e-01
9.280000000000000000e+02	3.277870016513071416e-01
9.290000000000000000e+02	3.049902514723030755e-01
9.300000000000000000e+02	2.837044270612738006e-01
9.310000000000000000e+02	2.638348687713535923e-01
9.320000000000000000e+02	2.452924581891919864e-01
9.330000000000000000e+02	2.279933203796059293e-01
9.340000000000000000e+02	2.118585403776162279e-01
9.350000000000000000e+02	1.968138933574671012e-01
9.360000000000000000e+02	1.827895879241613064e-01
9.370000000000000000e+02	1.697200219889365425e-01
9.380000000000000000e+02	1.575435507059908535e-01
9.390000000000000000e+02	1.462022659635658361e-01
9.400000000000000000e+02	1.356417869381983388e-01
9.410000000000000000e+02	1.258110612365377357e-01
9.420000000000000000e+02	1.166621761645389443e-01
9.430000000000000000e+02	1.081501796790892422e-01
9.440000000000000000e+02	1.002329105921684754e-01
9.450000000000000000e+02	9.287083761246947566e-02
9.460000000000000000e+02	8.602690682398543565e-02
9.470000000000000000e+02	7.966639721540468011e-02
9.480000000000000000e+02	7.375678388821627074e-02
9.490000000000000000e+02	6.826760858521521702e-02
9.500000000000000000e+02	6.317035719458538590e-02
9.510000000000000000e+02	5.843834389793073347e-02
9.520000000000000000e+02	5.404660164351175050e-02
9.530000000000000000e+02	4.997177863851138407e-02
9.540000000000000000e+02	4.619204056640677930e-02
9.550000000000000000e+02	4.268697824744623753e-02
9.560000000000000000e+02	3.943752047183747556e-02
9.570000000000000000e+02	3.642585174651856439e-02
9.580000000000000000e+02	3.363533470732994052e-02
9.590000000000000000e+02	3.105043695902039852e-02
9.600000000000000000e+02	2.865666211580322406e-02
9.610000000000000000e+02	2.644048482514222212e-02
9.620000000000000000e+02	2.438928956707871187e-02
9.630000000000000000e+02	2.249131303072970586e-02
9.640000000000000000e+02	2.073558987858038077e-02
9.650000000000000000e+02	1.911190171788037379e-02
9.660000000000000000e+02	1.761072910682650455e-02
9.670000000000000000e+02	1.622320643128603510e-02
9.680000000000000000e+02	1.494107949558614451e-02
9.690000000000000000e+02	1.375666567837524612e-02
9.700000000000000000e+02	1.266281651175377859e-02
9.710000000000000000e+02	1.165288254878427479e-02
9.720000000000000000e+02	1.072068039112769773e-02
9.730000000000000000e+02	9.860461754924111991e-03
9.740000000000000000e+02	9.066884459144100225e-03
9.750000000000000000e+02	8.334985226493972499e-03
9.760000000000000000e+02	7.660154192565743481e-03
9.770000000000000000e+02	7.038111024292760184e-03
9.780000000000000000e+02	6.464882553907206481e-03
9.790000000000000000e+02	5.936781839507552366e-03
9.800000000000000000e+02	5.450388568035290267e-03
9.810000000000000000e+02	5.002530720941964805e-03
9.820000000000000000e+02	4.590267427103897693e-03
9.830000000000000000e+02	4.210872931620761490e-03
9.840000000000000000e+02	3.861821613023585544e-03
9.850000000000000000e+02	3.540773985122259472e-03
9.860000000000000000e+02	3.245563623251100389e-03
9.870000000000000000e+02	2.974184958028518871e-03
9.880000000000000000e+02	2.724781882941288997e-03
9.890000000000000000e+02	2.495637125099982225e-03
9.900000000000000000e+02	2.285162331397614949e-03
9.910000000000000000e+02	2.091888825043917381e-03
9.920000000000000000e+02	1.914458990048259045e-03
9.930000000000000000e+02	1.751618243692195905e-03
9.940000000000000000e+02	1.602207559372277254e-03
9.950000000000000000e+02	1.465156504411569815e-03
9.960000000000000000e+02	1.339476759538927230e-03
9.970000000000000000e+02	1.224256088724198083e-03
9.980000000000000000e+02	1.118652729939809262e-03
9.990000000000000000e+02	1.021890179199618160e-03
1.000000000000000000e+03	9.332523419093272142e-04
