4.410000000000000000e+02	7.008549003937428070e-15
4.420000000000000000e+02	2.457308277786519095e-14
4.430000000000000000e+02	8.457460475193772525e-14
4.440000000000000000e+02	2.857387324962329936e-13
4.450000000000000000e+02	9.476480097746852184e-13
4.460000000000000000e+02	3.085132349602927805e-12
4.470000000000000000e+02	9.859374160690959840e-12
4.480000000000000000e+02	3.092955707794852453e-11
4.490000000000000000e+02	9.524602440770669941e-11
4.500000000000000000e+02	2.879180003544782817e-10
4.510000000000000000e+02	8.543573922661769796e-10
4.520000000000000000e+02	2.488623222631866515e-09
4.530000000000000000e+02	7.115862067968611703e-09
4.540000000000000000e+02	1.997306415103084507e-08
4.550000000000000000e+02	5.503141457510665597e-08
4.560000000000000000e+02	1.488419872471790200e-07
4.570000000000000000e+02	3.951746224766021412e-07
4.580000000000000000e+02	1.029915129919251836e-06
4.590000000000000000e+02	2.634890873113946044e-06
4.600000000000000000e+02	6.617175177878307937e-06
4.610000000000000000e+02	1.631290979357341036e-05
4.620000000000000000e+02	3.947653637628380810e-05
4.630000000000000000e+02	9.377680920399408652e-05
4.640000000000000000e+02	2.186757707185409247e-04
4.650000000000000000e+02	5.005583195573638745e-04
4.660000000000000000e+02	1.124753895455378070e-03
4.670000000000000000e+02	2.480899272847628990e-03
4.680000000000000000e+02	5.371672930008352526e-03
4.690000000000000000e+02	1.141717860680354149e-02
4.700000000000000000e+02	2.382082686081146705e-02
4.710000000000000000e+02	4.878695061599629818e-02
4.720000000000000000e+02	9.808425978275890633e-02
4.730000000000000000e+02	1.935725485326107442e-01
4.740000000000000000e+02	3.750049676177235058e-01
4.750000000000000000e+02	7.131470293973017904e-01
4.760000000000000000e+02	1.331281626153984821e+00
4.770000000000000000e+02	2.439549319524907833e+00
4.780000000000000000e+02	4.388317793579269654e+00
4.790000000000000000e+02	7.748815902349317497e+00
4.800000000000000000e+02	1.343140420577315020e+01
4.810000000000000000e+02	2.285368825267719117e+01
4.820000000000000000e+02	3.817156645981630447e+01
4.830000000000000000e+02	6.258531900208586052e+01
4.840000000000000000e+02	1.007288235432563397e+02
4.850000000000000000e+02	1.591416501524188050e+02
4.860000000000000000e+02	2.468100023681618325e+02
4.870000000000000000e+02	3.757426201457145112e+02
4.880000000000000000e+02	5.615222481175871962e+02
4.890000000000000000e+02	8.237440486900030692e+02
4.900000000000000000e+02	1.186223347364863912e+03
4.910000000000000000e+02	1.676832622458283822e+03
4.920000000000000000e+02	2.326821135352234251e+03
4.930000000000000000e+02	3.169496820370904516e+03
4.940000000000000000e+02	4.238250356969298991e+03
4.950000000000000000e+02	5.564194734806690576e+03
4.960000000000000000e+02	7.174493973283346349e+03
4.970000000000000000e+02	9.094409516422470915e+03
4.980000000000000000e+02	1.136001518050566665e+04
4.990000000000000000e+02	1.405408971067035236e+04
5.000000000000000000e+02	1.738017486686927441e+04
5.010000000000000000e+02	2.177670517301250584e+04
5.020000000000000000e+02	2.802838866430747294e+04
5.030000000000000000e+02	3.725780420824093017e+04
5.040000000000000000e+02	5.062982725774522987e+04
5.050000000000000000e+02	6.867909300005630939e+04
5.060000000000000000e+02	9.044163128356474044e+04
5.070000000000000000e+02	1.129163796632639423e+05
5.080000000000000000e+02	1.314719340440261876e+05
5.090000000000000000e+02	1.413732525351276854e+05
5.100000000000000000e+02	1.397965410910471692e+05
5.110000000000000000e+02	1.271665797942842182e+05
5.120000000000000000e+02	1.069537197843626491e+05
5.130000000000000000e+02	8.406438343358930433e+04
5.140000000000000000e+02	6.284534696426196024e+04
5.150000000000000000e+02	4.580196256585116498e+04
5.160000000000000000e+02	3.346273443595749268e+04
5.170000000000000000e+02	2.505896657710436193e+04
5.180000000000000000e+02	1.938274391033265420e+04
5.190000000000000000e+02	1.537220761545576534e+04
5.200000000000000000e+02	1.232408035204090083e+04
5.210000000000000000e+02	9.859236711815741728e+03
5.220000000000000000e+02	7.803790539099675698e+03
5.230000000000000000e+02	6.083725087695083857e+03
5.240000000000000000e+02	4.661587743593830055e+03
5.250000000000000000e+02	3.507807220342168421e+03
5.260000000000000000e+02	2.591462190041228041e+03
5.270000000000000000e+02	1.879400307777794296e+03
5.280000000000000000e+02	1.337971062812912805e+03
5.290000000000000000e+02	9.350265229194272933e+02
5.300000000000000000e+02	6.414313035576363973e+02
5.310000000000000000e+02	4.319417816743987828e+02
5.320000000000000000e+02	2.855282547166789300e+02
5.330000000000000000e+02	1.852771113870572037e+02
5.340000000000000000e+02	1.180166426240492825e+02
5.350000000000000000e+02	7.379272426245921679e+01
5.360000000000000000e+02	4.529316151315655503e+01
5.370000000000000000e+02	2.728981125722379986e+01
5.380000000000000000e+02	1.614050920634269914e+01
5.390000000000000000e+02	9.370930903226421194e+00
5.400000000000000000e+02	5.340685979992804810e+00
5.410000000000000000e+02	2.987859384021853693e+00
5.420000000000000000e+02	1.640862047163637261e+00
5.430000000000000000e+02	8.845711871955717065e-01
5.440000000000000000e+02	4.681039568329106171e-01
5.450000000000000000e+02	2.431647616143702284e-01
5.460000000000000000e+02	1.239960269521389880e-01
5.470000000000000000e+02	6.206742161679291991e-02
5.480000000000000000e+02	3.049779514513241765e-02
5.490000000000000000e+02	1.471031542829177169e-02
5.500000000000000000e+02	6.965051491629633586e-03
5.510000000000000000e+02	3.237244349542329341e-03
5.520000000000000000e+02	1.476982791797584911e-03
5.530000000000000000e+02	6.614913860695150610e-04
5.540000000000000000e+02	2.908183156710275998e-04
5.550000000000000000e+02	1.255070495815829694e-04
5.560000000000000000e+02	5.316958733722904881e-05
5.570000000000000000e+02	2.211094289086269445e-05
5.580000000000000000e+02	9.026097904721732090e-06
5.590000000000000000e+02	3.616942634956079876e-06
5.600000000000000000e+02	1.422761175716031510e-06
5.610000000000000000e+02	5.493779118528560928e-07
5.620000000000000000e+02	2.082376177667904211e-07
5.630000000000000000e+02	7.748113664567771211e-08
5.640000000000000000e+02	2.829968382246673540e-08
5.650000000000000000e+02	1.014649364027954885e-08
5.660000000000000000e+02	3.571076842420927721e-09
5.670000000000000000e+02	1.233761481401860480e-09
5.680000000000000000e+02	4.184196028435841251e-10
5.690000000000000000e+02	1.392969612514386045e-10
5.700000000000000000e+02	4.552186702525823149e-11
5.710000000000000000e+02	1.460317511350722042e-11
5.720000000000000000e+02	4.598575531681588377e-12
5.730000000000000000e+02	1.421504239067767546e-12
5.740000000000000000e+02	4.313420499304689463e-13
5.750000000000000000e+02	1.284825775605047907e-13
5.760000000000000000e+02	3.756777612584460808e-14
5.770000000000000000e+02	1.078289900649514733e-14
5.780000000000000000e+02	3.038116279616049201e-15
5.790000000000000000e+02	8.402761752808330201e-16
5.800000000000000000e+02	2.281332103131758419e-16
5.810000000000000000e+02	6.080002779309200455e-17
5.820000000000000000e+02	1.590625159258297885e-17
5.830000000000000000e+02	4.084893338476261325e-18
5.840000000000000000e+02	1.029775128736073859e-18
5.850000000000000000e+02	2.548313645519953716e-19
5.860000000000000000e+02	6.190306673469907797e-20
5.870000000000000000e+02	1.476115205370834027e-20
5.880000000000000000e+02	3.455231471412820322e-21
5.890000000000000000e+02	7.939311529118652712e-22
5.900000000000000000e+02	1.790759831026431951e-22
5.910000000000000000e+02	3.964976781640184596e-23
5.920000000000000000e+02	8.617727491812019977e-24
5.930000000000000000e+02	1.838627150549361077e-24
5.940000000000000000e+02	3.850732806420293194e-25
5.950000000000000000e+02	7.916658383471725394e-26
5.960000000000000000e+02	1.597677902765064575e-26
5.970000000000000000e+02	3.165084842998611473e-27
5.980000000000000000e+02	6.155031609641477856e-28
5.990000000000000000e+02	1.174962546037135691e-28
6.000000000000000000e+02	2.201742684917938684e-29
6.010000000000000000e+02	4.050026875483472499e-30
6.020000000000000000e+02	7.313041737097497913e-31
6.030000000000000000e+02	1.296244727191916376e-31
6.040000000000000000e+02	2.255406134857217083e-32
6.050000000000000000e+02	3.852222077329530540e-33
6.060000000000000000e+02	6.458723285216500491e-34
6.070000000000000000e+02	1.062994076421943418e-34
6.080000000000000000e+02	1.717369771961659845e-35
6.090000000000000000e+02	2.723614191174566661e-36
6.100000000000000000e+02	4.240100652898445581e-37
6.110000000000000000e+02	6.479709677025874010e-38
6.120000000000000000e+02	9.720390968867883140e-39
6.130000000000000000e+02	1.431399043300662080e-39
6.140000000000000000e+02	2.069123988811015050e-40
6.150000000000000000e+02	2.936034218888951502e-41
6.160000000000000000e+02	4.089634669197519537e-42
6.170000000000000000e+02	5.591865522387186253e-43
6.180000000000000000e+02	7.505467128942111847e-44
6.190000000000000000e+02	9.888889857873229673e-45
6.200000000000000000e+02	1.278987076345034267e-45
6.210000000000000000e+02	1.623803885828383069e-46
6.220000000000000000e+02	2.023717095528746956e-47
6.230000000000000000e+02	2.475795837243306655e-48
6.240000000000000000e+02	2.973231054253455857e-49
6.250000000000000000e+02	3.505026419531631381e-50
6.260000000000000000e+02	4.056044726628133661e-51
6.270000000000000000e+02	4.607474908100009074e-52
6.280000000000000000e+02	5.137738857130785216e-53
6.290000000000000000e+02	5.623800125693624741e-54
6.300000000000000000e+02	6.042776506742375536e-55
6.310000000000000000e+02	6.373705471802951893e-56
6.320000000000000000e+02	6.599275414158611880e-57
6.330000000000000000e+02	6.707324532987777707e-58
6.340000000000000000e+02	6.691926935102067110e-59
6.350000000000000000e+02	6.553930999828006955e-60
6.360000000000000000e+02	6.300881949054865985e-61
6.370000000000000000e+02	5.946338455734857508e-62
6.380000000000000000e+02	5.508669419575180620e-63
6.390000000000000000e+02	5.009479462264861115e-64
6.400000000000000000e+02	4.471850684577943346e-65
6.410000000000000000e+02	3.918598712169806749e-66
6.420000000000000000e+02	3.370723219280019737e-67
6.430000000000000000e+02	2.846192027648387813e-68
6.440000000000000000e+02	2.359142132423270428e-69
6.450000000000000000e+02	1.919520787535131903e-70
6.460000000000000000e+02	1.533134781575838628e-71
6.470000000000000000e+02	1.202033736939379364e-72
6.480000000000000000e+02	9.251279060053292193e-74
6.490000000000000000e+02	6.989332633267772725e-75
6.500000000000000000e+02	5.183444369213569294e-76
6.510000000000000000e+02	3.773548862365938633e-77
6.520000000000000000e+02	2.696685610540841445e-78
6.530000000000000000e+02	1.891731351819717354e-79
6.540000000000000000e+02	1.302678990984037777e-80
6.550000000000000000e+02	8.805705577610982293e-82
6.560000000000000000e+02	5.843051523084035510e-83
6.570000000000000000e+02	3.805958733023842825e-84
6.580000000000000000e+02	2.433532989855640642e-85
6.590000000000000000e+02	1.527422574530250749e-86
6.600000000000000000e+02	9.410874366861917791e-88
6.610000000000000000e+02	5.691798938518005960e-89
6.620000000000000000e+02	3.379231374936144570e-90
6.630000000000000000e+02	1.969405339861366290e-91
6.640000000000000000e+02	1.126681328837438703e-92
6.650000000000000000e+02	6.327263008599430045e-94
6.660000000000000000e+02	3.488024134705536164e-95
6.670000000000000000e+02	1.887521377671697395e-96
6.680000000000000000e+02	1.002658594211649899e-97
6.690000000000000000e+02	5.228331140638568820e-99
6.700000000000000000e+02	2.676220514964136742e-100
6.710000000000000000e+02	1.344712706780211222e-101
6.720000000000000000e+02	6.632632365106344552e-103
6.730000000000000000e+02	3.211375921272530484e-104
6.740000000000000000e+02	1.526318511688477970e-105
6.750000000000000000e+02	7.121115013931883052e-107
6.760000000000000000e+02	3.261366700934458977e-108
6.770000000000000000e+02	1.466223139188692482e-109
6.780000000000000000e+02	6.470670858450094290e-111
6.790000000000000000e+02	2.803156553496096746e-112
6.800000000000000000e+02	1.192049256774927312e-113
6.810000000000000000e+02	4.976108636091089014e-115
6.820000000000000000e+02	2.039080205711389950e-116
6.830000000000000000e+02	8.202147373649461746e-118
6.840000000000000000e+02	3.238691874405393356e-119
6.850000000000000000e+02	1.255337489772723588e-120
6.860000000000000000e+02	4.776394284869865522e-122
6.870000000000000000e+02	1.783974510981120778e-123
6.880000000000000000e+02	6.540725510329028614e-125
6.890000000000000000e+02	2.354030071836040340e-126
6.900000000000000000e+02	8.316620664897954474e-128
6.910000000000000000e+02	2.884234606532293983e-129
6.920000000000000000e+02	9.818905441715772050e-131
6.930000000000000000e+02	3.281288193038843137e-132
6.940000000000000000e+02	1.076401954804028488e-133
6.950000000000000000e+02	3.466198130077197575e-135
6.960000000000000000e+02	1.095673337074178838e-136
6.970000000000000000e+02	3.399833171428815977e-138
6.980000000000000000e+02	1.035578259147076154e-139
6.990000000000000000e+02	3.096399905933391792e-141
7.000000000000000000e+02	9.088243839361696068e-143
7.010000000000000000e+02	2.618494703185716661e-144
7.020000000000000000e+02	7.405804317841666535e-146
7.030000000000000000e+02	2.056087388782834948e-147
7.040000000000000000e+02	5.603504304401503341e-149
7.050000000000000000e+02	1.499086365957478313e-150
7.060000000000000000e+02	3.936791393734145530e-152
7.070000000000000000e+02	1.014861914627425149e-153
7.080000000000000000e+02	2.568149553288001336e-155
7.090000000000000000e+02	6.379438729390708635e-157
7.100000000000000000e+02	1.555583881225836700e-158
7.110000000000000000e+02	3.723515808228813483e-160
7.120000000000000000e+02	8.749067626246982269e-162
7.130000000000000000e+02	2.017990645694135825e-163
7.140000000000000000e+02	4.569043869377428137e-165
7.150000000000000000e+02	1.015500896069199206e-166
7.160000000000000000e+02	2.215562969660831683e-168
7.170000000000000000e+02	4.745005155214170960e-170
7.180000000000000000e+02	9.975578331938039206e-172
7.190000000000000000e+02	2.058677327898228109e-173
7.200000000000000000e+02	4.170491919007455081e-175
7.210000000000000000e+02	8.293447317024502268e-177
7.220000000000000000e+02	1.618943529131535122e-178
7.230000000000000000e+02	3.102252292490018552e-180
7.240000000000000000e+02	5.835409417510719484e-182
7.250000000000000000e+02	1.077492742334702812e-183
7.260000000000000000e+02	1.953017699023469613e-185
7.270000000000000000e+02	3.474935984542238384e-187
7.280000000000000000e+02	6.069266974290000708e-189
7.290000000000000000e+02	1.040577614043935344e-190
7.300000000000000000e+02	1.751303919340138925e-192
7.310000000000000000e+02	2.893325964587074248e-194
7.320000000000000000e+02	4.692259400351718072e-196
7.330000000000000000e+02	7.469911655099220108e-198
7.340000000000000000e+02	1.167340953199630056e-199
7.350000000000000000e+02	1.790724527364731159e-201
7.360000000000000000e+02	2.696551047737319493e-203
7.370000000000000000e+02	3.986000181755686697e-205
7.380000000000000000e+02	5.783820230187938117e-207
7.390000000000000000e+02	8.238365611057792760e-209
7.400000000000000000e+02	1.151903614844657746e-210
7.410000000000000000e+02	1.581029686218604913e-212
7.420000000000000000e+02	2.130162386286304441e-214
7.430000000000000000e+02	2.817307185233803418e-216
7.440000000000000000e+02	3.657669811230938484e-218
7.450000000000000000e+02	4.661477546816184017e-220
7.460000000000000000e+02	5.831650650619265453e-222
7.470000000000000000e+02	7.161569417077248002e-224
7.480000000000000000e+02	8.633238052588232401e-226
7.490000000000000000e+02	1.021616810532702610e-227
7.500000000000000000e+02	1.186727888847196470e-229
7.510000000000000000e+02	1.353203369931322238e-231
7.520000000000000000e+02	1.514690133537872954e-233
7.530000000000000000e+02	1.664306564609914096e-235
7.540000000000000000e+02	1.795112453204173984e-237
7.550000000000000000e+02	1.900635326830824217e-239
7.560000000000000000e+02	1.975398585486285347e-241
7.570000000000000000e+02	2.015391783140131220e-243
7.580000000000000000e+02	2.018426933008552914e-245
7.590000000000000000e+02	1.984336794925167160e-247
7.600000000000000000e+02	1.914990139845702784e-249
7.610000000000000000e+02	1.814122052853058333e-251
7.620000000000000000e+02	1.687000716995023354e-253
7.630000000000000000e+02	1.539972038875196948e-255
7.640000000000000000e+02	1.379936835276926881e-257
7.650000000000000000e+02	1.213820264374382471e-259
7.660000000000000000e+02	1.048089483985881982e-261
7.670000000000000000e+02	8.883644015965661619e-264
7.680000000000000000e+02	7.391502614156006868e-266
7.690000000000000000e+02	6.037027112495928322e-268
7.700000000000000000e+02	4.840189014139405581e-270
7.710000000000000000e+02	3.809345120099115404e-272
7.720000000000000000e+02	2.942978733409668498e-274
7.730000000000000000e+02	2.231889714070409805e-276
7.740000000000000000e+02	1.661525999336150924e-278
7.750000000000000000e+02	1.214200356530953443e-280
7.760000000000000000e+02	8.710084625137510064e-283
7.770000000000000000e+02	6.133426946197583455e-285
7.780000000000000000e+02	4.239677507097925140e-287
7.790000000000000000e+02	2.876810486250589671e-289
7.800000000000000000e+02	1.916189636534645359e-291
7.810000000000000000e+02	1.252894563521904783e-293
7.820000000000000000e+02	8.041542589806067968e-296
7.830000000000000000e+02	5.066557921186715161e-298
7.840000000000000000e+02	3.133541575469693857e-300
7.850000000000000000e+02	1.902421364287699471e-302
7.860000000000000000e+02	1.133774726018173112e-304
7.870000000000000000e+02	6.632780608540855767e-307
7.880000000000000000e+02	3.809020387807583295e-309
7.890000000000000000e+02	2.147235931230131110e-311
7.900000000000000000e+02	1.188215007541684387e-313
7.910000000000000000e+02	6.454481205880990808e-316
7.920000000000000000e+02	3.358944818503381930e-318
7.930000000000000000e+02	0.000000000000000000e+00
7.940000000000000000e+02	0.000000000000000000e+00
7.950000000000000000e+02	0.000000000000000000e+00
7.960000000000000000e+02	0.000000000000000000e+00
7.970000000000000000e+02	0.000000000000000000e+00
7.980000000000000000e+02	0.000000000000000000e+00
7.990000000000000000e+02	0.000000000000000000e+00
8.000000000000000000e+02	0.000000000000000000e+00
8.010000000000000000e+02	0.000000000000000000e+00
8.020000000000000000e+02	0.000000000000000000e+00
8.030000000000000000e+02	0.000000000000000000e+00
8.040000000000000000e+02	0.000000000000000000e+00
8.050000000000000000e+02	0.000000000000000000e+00
8.060000000000000000e+02	0.000000000000000000e+00
8.070000000000000000e+02	0.000000000000000000e+00
8.080000000000000000e+02	0.000000000000000000e+00
8.090000000000000000e+02	0.000000000000000000e+00
8.100000000000000000e+02	0.000000000000000000e+00
8.110000000000000000e+02	0.000000000000000000e+00
8.120000000000000000e+02	0.000000000000000000e+00
8.130000000000000000e+02	0.000000000000000000e+00
8.140000000000000000e+02	0.000000000000000000e+00
8.150000000000000000e+02	0.000000000000000000e+00
8.160000000000000000e+02	0.000000000000000000e+00
8.170000000000000000e+02	0.000000000000000000e+00
8.180000000000000000e+02	0.000000000000000000e+00
8.190000000000000000e+02	0.000000000000000000e+00
8.200000000000000000e+02	0.000000000000000000e+00
8.210000000000000000e+02	0.000000000000000000e+00
8.220000000000000000e+02	0.000000000000000000e+00
8.230000000000000000e+02	0.000000000000000000e+00
8.240000000000000000e+02	0.000000000000000000e+00
8.250000000000000000e+02	0.000000000000000000e+00
8.260000000000000000e+02	0.000000000000000000e+00
8.270000000000000000e+02	0.000000000000000000e+00
8.280000000000000000e+02	0.000000000000000000e+00
8.290000000000000000e+02	0.000000000000000000e+00
8.300000000000000000e+02	0.000000000000000000e+00
8.310000000000000000e+02	0.000000000000000000e+00
8.320000000000000000e+02	0.000000000000000000e+00
8.330000000000000000e+02	0.000000000000000000e+00
8.340000000000000000e+02	0.000000000000000000e+00
8.350000000000000000e+02	0.000000000000000000e+00
8.360000000000000000e+02	0.000000000000000000e+00
8.370000000000000000e+02	0.000000000000000000e+00
8.380000000000000000e+02	0.000000000000000000e+00
8.390000000000000000e+02	0.000000000000000000e+00
8.400000000000000000e+02	0.000000000000000000e+00
8.410000000000000000e+02	0.000000000000000000e+00
8.420000000000000000e+02	0.000000000000000000e+00
8.430000000000000000e+02	0.000000000000000000e+00
8.440000000000000000e+02	0.000000000000000000e+00
8.450000000000000000e+02	0.000000000000000000e+00
8.460000000000000000e+02	0.000000000000000000e+00
8.470000000000000000e+02	0.000000000000000000e+00
8.480000000000000000e+02	0.000000000000000000e+00
8.490000000000000000e+02	0.000000000000000000e+00
8.500000000000000000e+02	0.000000000000000000e+00
8.510000000000000000e+02	0.000000000000000000e+00
8.520000000000000000e+02	0.000000000000000000e+00
8.530000000000000000e+02	0.000000000000000000e+00
8.540000000000000000e+02	0.000000000000000000e+00
8.550000000000000000e+02	0.000000000000000000e+00
8.560000000000000000e+02	0.000000000000000000e+00
8.570000000000000000e+02	0.000000000000000000e+00
8.580000000000000000e+02	0.000000000000000000e+00
8.590000000000000000e+02	0.000000000000000000e+00
8.600000000000000000e+02	0.000000000000000000e+00
8.610000000000000000e+02	0.000000000000000000e+00
8.620000000000000000e+02	0.000000000000000000e+00
8.630000000000000000e+02	0.000000000000000000e+00
8.640000000000000000e+02	0.000000000000000000e+00
8.650000000000000000e+02	0.000000000000000000e+00
8.660000000000000000e+02	0.000000000000000000e+00
8.670000000000000000e+02	0.000000000000000000e+00
8.680000000000000000e+02	0.000000000000000000e+00
8.690000000000000000e+02	0.000000000000000000e+00
8.700000000000000000e+02	0.000000000000000000e+00
8.710000000000000000e+02	0.000000000000000000e+00
8.720000000000000000e+02	0.000000000000000000e+00
8.730000000000000000e+02	0.000000000000000000e+00
8.740000000000000000e+02	0.000000000000000000e+00
8.750000000000000000e+02	0.000000000000000000e+00
8.760000000000000000e+02	0.000000000000000000e+00
8.770000000000000000e+02	0.000000000000000000e+00
8.780000000000000000e+02	0.000000000000000000e+00
8.790000000000000000e+02	0.000000000000000000e+00
8.800000000000000000e+02	0.000000000000000000e+00
8.810000000000000000e+02	0.000000000000000000e+00
8.820000000000000000e+02	0.000000000000000000e+00
8.830000000000000000e+02	0.000000000000000000e+00
8.840000000000000000e+02	0.000000000000000000e+00
8.850000000000000000e+02	0.000000000000000000e+00
8.860000000000000000e+02	0.000000000000000000e+00
8.870000000000000000e+02	0.000000000000000000e+00
8.880000000000000000e+02	0.000000000000000000e+00
8.890000000000000000e+02	0.000000000000000000e+00
8.900000000000000000e+02	0.000000000000000000e+00
8.910000000000000000e+02	0.000000000000000000e+00
8.920000000000000000e+02	0.000000000000000000e+00
8.930000000000000000e+02	0.000000000000000000e+00
8.940000000000000000e+02	0.000000000000000000e+00
8.950000000000000000e+02	0.000000000000000000e+00
8.960000000000000000e+02	0.000000000000000000e+00
8.970000000000000000e+02	0.000000000000000000e+00
8.980000000000000000e+02	0.000000000000000000e+00
8.990000000000000000e+02	0.000000000000000000e+00
9.000000000000000000e+02	0.000000000000000000e+00
9.010000000000000000e+02	0.000000000000000000e+00
9.020000000000000000e+02	0.000000000000000000e+00
9.030000000000000000e+02	0.000000000000000000e+00
9.040000000000000000e+02	0.000000000000000000e+00
9.050000000000000000e+02	0.000000000000000000e+00
9.060000000000000000e+02	0.000000000000000000e+00
9.070000000000000000e+02	0.000000000000000000e+00
9.080000000000000000e+02	0.000000000000000000e+00
9.090000000000000000e+02	0.000000000000000000e+00
9.100000000000000000e+02	0.000000000000000000e+00
9.110000000000000000e+02	0.000000000000000000e+00
9.120000000000000000e+02	0.000000000000000000e+00
9.130000000000000000e+02	0.000000000000000000e+00
9.140000000000000000e+02	0.000000000000000000e+00
9.150000000000000000e+02	0.000000000000000000e+00
9.160000000000000000e+02	0.000000000000000000e+00
9.170000000000000000e+02	0.000000000000000000e+00
9.180000000000000000e+02	0.000000000000000000e+00
9.190000000000000000e+02	0.000000000000000000e+00
9.200000000000000000e+02	0.000000000000000000e+00
9.210000000000000000e+02	0.000000000000000000e+00
9.220000000000000000e+02	0.000000000000000000e+00
9.230000000000000000e+02	0.000000000000000000e+00
9.240000000000000000e+02	0.000000000000000000e+00
9.250000000000000000e+02	0.000000000000000000e+00
9.260000000000000000e+02	0.000000000000000000e+00
9.270000000000000000e+02	0.000000000000000000e+00
9.280000000000000000e+02	0.000000000000000000e+00
9.290000000000000000e+02	0.000000000000000000e+00
9.300000000000000000e+02	0.000000000000000000e+00
9.310000000000000000e+02	0.000000000000000000e+00
9.320000000000000000e+02	0.000000000000000000e+00
9.330000000000000000e+02	0.000000000000000000e+00
9.340000000000000000e+02	0.000000000000000000e+00
9.350000000000000000e+02	0.000000000000000000e+00
9.360000000000000000e+02	0.000000000000000000e+00
9.370000000000000000e+02	0.000000000000000000e+00
9.380000000000000000e+02	0.000000000000000000e+00
9.390000000000000000e+02	0.000000000000000000e+00
9.400000000000000000e+02	0.000000000000000000e+00
9.410000000000000000e+02	0.000000000000000000e+00
9.420000000000000000e+02	0.000000000000000000e+00
9.430000000000000000e+02	0.000000000000000000e+00
9.440000000000000000e+02	0.000000000000000000e+00
9.450000000000000000e+02	0.000000000000000000e+00
9.460000000000000000e+02	0.000000000000000000e+00
9.470000000000000000e+02	0.000000000000000000e+00
9.480000000000000000e+02	0.000000000000000000e+00
9.490000000000000000e+02	0.000000000000000000e+00
9.500000000000000000e+02	0.000000000000000000e+00
9.510000000000000000e+02	0.000000000000000000e+00
9.520000000000000000e+02	0.000000000000000000e+00
9.530000000000000000e+02	0.000000000000000000e+00
9.540000000000000000e+02	0.000000000000000000e+00
9.550000000000000000e+02	0.000000000000000000e+00
9.560000000000000000e+02	0.000000000000000000e+00
9.570000000000000000e+02	0.000000000000000000e+00
9.580000000000000000e+02	0.000000000000000000e+00
9.590000000000000000e+02	0.000000000000000000e+00
9.600000000000000000e+02	0.000000000000000000e+00
9.610000000000000000e+02	0.000000000000000000e+00
9.620000000000000000e+02	0.000000000000000000e+00
9.630000000000000000e+02	0.000000000000000000e+00
9.640000000000000000e+02	0.000000000000000000e+00
9.650000000000000000e+02	0.000000000000000000e+00
9.660000000000000000e+02	0.000000000000000000e+00
9.670000000000000000e+02	0.000000000000000000e+00
9.680000000000000000e+02	0.000000000000000000e+00
9.690000000000000000e+02	0.000000000000000000e+00
9.700000000000000000e+02	0.000000000000000000e+00
9.710000000000000000e+02	0.000000000000000000e+00
9.720000000000000000e+02	0.000000000000000000e+00
9.730000000000000000e+02	0.000000000000000000e+00
9.740000000000000000e+02	0.000000000000000000e+00
9.750000000000000000e+02	0.000000000000000000e+00
9.760000000000000000e+02	0.000000000000000000e+00
9.770000000000000000e+02	0.000000000000000000e+00
9.780000000000000000e+02	0.000000000000000000e+00
9.790000000000000000e+02	0.000000000000000000e+00
9.800000000000000000e+02	0.000000000000000000e+00
9.810000000000000000e+02	0.000000000000000000e+00
9.820000000000000000e+02	0.000000000000000000e+00
9.830000000000000000e+02	0.000000000000000000e+00
9.840000000000000000e+02	0.000000000000000000e+00
9.850000000000000000e+02	0.000000000000000000e+00
9.860000000000000000e+02	0.000000000000000000e+00
9.870000000000000000e+02	0.000000000000000000e+00
9.880000000000000000e+02	0.000000000000000000e+00
9.890000000000000000e+02	0.000000000000000000e+00
9.900000000000000000e+02	0.000000000000000000e+00
9.910000000000000000e+02	0.000000000000000000e+00
9.920000000000000000e+02	0.000000000000000000e+00
9.930000000000000000e+02	0.000000000000000000e+00
9.940000000000000000e+02	0.000000000000000000e+00
9.950000000000000000e+02	0.000000000000000000e+00
9.960000000000000000e+02	0.000000000000000000e+00
9.970000000000000000e+02	0.000000000000000000e+00
9.980000000000000000e+02	0.000000000000000000e+00
9.990000000000000000e+02	0.000000000000000000e+00
1.000000000000000000e+03	0.000000000000000000e+00
