4.410000000000000000e+02	7.814943704940641389e+00
4.420000000000000000e+02	8.316095296288771976e+00
4.430000000000000000e+02	8.846682321754620659e+00
4.440000000000000000e+02	9.408248475899851471e+00
4.450000000000000000e+02	1.000240641572541556e+01
4.460000000000000000e+02	1.063084010642438493e+01
4.470000000000000000e+02	1.129530720337375982e+01
4.480000000000000000e+02	1.199764146815413923e+01
4.490000000000000000e+02	1.273975521617160389e+01
4.500000000000000000e+02	1.352364179323486582e+01
4.510000000000000000e+02	1.435137807821172373e+01
4.520000000000000000e+02	1.522512700865310720e+01
4.530000000000000000e+02	1.614714012603086957e+01
4.540000000000000000e+02	1.711976013698580701e+01
4.550000000000000000e+02	1.814542348672788563e+01
4.560000000000000000e+02	1.922666294046940649e+01
4.570000000000000000e+02	2.036611016850520528e+01
4.580000000000000000e+02	2.156649833028302865e+01
4.590000000000000000e+02	2.283066465253079258e+01
4.600000000000000000e+02	2.416155299622759500e+01
4.610000000000000000e+02	2.556221640692184849e+01
4.620000000000000000e+02	2.703581964261360682e+01
4.630000000000000000e+02	2.858564167312907145e+01
4.640000000000000000e+02	3.021507814462565022e+01
4.650000000000000000e+02	3.192764380257413137e+01
4.660000000000000000e+02	3.372697486627446040e+01
4.670000000000000000e+02	3.561683134766985148e+01
4.680000000000000000e+02	3.760109930693664637e+01
4.690000000000000000e+02	3.968379303703989081e+01
4.700000000000000000e+02	4.186905716916248821e+01
4.710000000000000000e+02	4.416116869063765904e+01
4.720000000000000000e+02	4.656453886674099607e+01
4.730000000000000000e+02	4.908371505743247099e+01
4.740000000000000000e+02	5.172338241988163077e+01
4.750000000000000000e+02	5.448836548736139918e+01
4.760000000000000000e+02	5.738362961488576985e+01
4.770000000000000000e+02	6.041428228194459393e+01
4.780000000000000000e+02	6.358557424387983303e+01
4.790000000000000000e+02	6.690290053220435595e+01
4.800000000000000000e+02	7.037180135706105943e+01
4.810000000000000000e+02	7.399796325765150584e+01
4.820000000000000000e+02	7.778722234794513213e+01
4.830000000000000000e+02	8.174557865702230686e+01
4.840000000000000000e+02	8.587926215611759062e+01
4.850000000000000000e+02	9.019502027205912498e+01
4.860000000000000000e+02	9.470128494286450405e+01
4.870000000000000000e+02	9.941257769022620039e+01
4.880000000000000000e+02	1.043649511383654982e+02
4.890000000000000000e+02	1.096661838605541419e+02
4.900000000000000000e+02	1.156468024486004680e+02
4.910000000000000000e+02	1.232796323120463882e+02
4.920000000000000000e+02	1.352526178341092020e+02
4.930000000000000000e+02	1.584832652023682726e+02
4.940000000000000000e+02	2.094888138181400450e+02
4.950000000000000000e+02	3.247480846542541144e+02
4.960000000000000000e+02	5.785211957640473202e+02
4.970000000000000000e+02	1.109520132757730380e+03
4.980000000000000000e+02	2.153967583617450600e+03
4.990000000000000000e+02	4.075040611851068661e+03
5.000000000000000000e+02	7.368655136303546897e+03
5.010000000000000000e+02	1.261790284082627113e+04
5.020000000000000000e+02	2.037163204267048059e+04
5.030000000000000000e+02	3.094472334817381488e+04
5.040000000000000000e+02	4.417878551487329241e+04
5.050000000000000000e+02	5.924797916924817400e+04
5.060000000000000000e+02	7.461782291124013136e+04
5.070000000000000000e+02	8.823785595821429160e+04
5.080000000000000000e+02	9.796625488000792393e+04
5.090000000000000000e+02	1.021157321063078707e+05
5.100000000000000000e+02	9.993173825453166501e+04
5.110000000000000000e+02	9.181709943669970380e+04
5.120000000000000000e+02	7.921133894437151321e+04
5.130000000000000000e+02	6.417427897566385946e+04
5.140000000000000000e+02	4.883917941579187027e+04
5.150000000000000000e+02	3.493367264602229989e+04
5.160000000000000000e+02	2.350966835415682363e+04
5.170000000000000000e+02	1.491753606970574219e+04
5.180000000000000000e+02	8.964136587208511628e+03
5.190000000000000000e+02	5.148986131539016242e+03
5.200000000000000000e+02	2.882722641252747962e+03
5.210000000000000000e+02	1.634248398048846184e+03
5.220000000000000000e+02	9.978850699939580409e+02
5.230000000000000000e+02	7.004504916855642023e+02
5.240000000000000000e+02	5.765585467732000780e+02
5.250000000000000000e+02	5.351650115204507756e+02
5.260000000000000000e+02	5.303657646742681209e+02
5.270000000000000000e+02	5.408587485438062004e+02
5.280000000000000000e+02	5.575146973203776497e+02
5.290000000000000000e+02	5.767124459218277934e+02
5.300000000000000000e+02	5.971216765233741626e+02
5.310000000000000000e+02	6.182909584469480251e+02
5.320000000000000000e+02	6.400806741894027709e+02
5.330000000000000000e+02	6.624536265035994802e+02
5.340000000000000000e+02	6.854037015918949010e+02
5.350000000000000000e+02	7.089333808913722805e+02
5.360000000000000000e+02	7.330471609936035975e+02
5.370000000000000000e+02	7.577497562386048457e+02
5.380000000000000000e+02	7.830456318550791366e+02
5.390000000000000000e+02	8.089388802778352101e+02
5.400000000000000000e+02	8.354331796673444614e+02
5.410000000000000000e+02	8.625317707703308088e+02
5.420000000000000000e+02	8.902374376467909087e+02
5.430000000000000000e+02	9.185524892390319565e+02
5.440000000000000000e+02	9.474787412197500771e+02
5.450000000000000000e+02	9.770174980479089299e+02
5.460000000000000000e+02	1.007169535253046320e+03
5.470000000000000000e+02	1.037935081985082434e+03
5.480000000000000000e+02	1.069313803869911908e+03
5.490000000000000000e+02	1.101304786212037698e+03
5.500000000000000000e+02	1.133906517586075097e+03
5.510000000000000000e+02	1.167116873859387169e+03
5.520000000000000000e+02	1.200933102688446070e+03
5.530000000000000000e+02	1.235351808531763027e+03
5.540000000000000000e+02	1.270368938222363795e+03
5.550000000000000000e+02	1.305979767142827995e+03
5.560000000000000000e+02	1.342178886045843228e+03
5.570000000000000000e+02	1.378960188563051815e+03
5.580000000000000000e+02	1.416316859444680176e+03
5.590000000000000000e+02	1.454241363572040427e+03
5.600000000000000000e+02	1.492725435784486535e+03
5.610000000000000000e+02	1.531760071561764562e+03
5.620000000000000000e+02	1.571335518601958483e+03
5.630000000000000000e+02	1.611441269334354502e+03
5.640000000000000000e+02	1.652066054405564273e+03
5.650000000000000000e+02	1.693197837176131316e+03
5.660000000000000000e+02	1.734823809263617932e+03
5.670000000000000000e+02	1.776930387166814853e+03
5.680000000000000000e+02	1.819503210004250832e+03
5.690000000000000000e+02	1.862527138398577790e+03
5.700000000000000000e+02	1.905986254536719571e+03
5.710000000000000000e+02	1.949863863433820825e+03
5.720000000000000000e+02	1.994142495427132644e+03
5.730000000000000000e+02	2.038803909923893116e+03
5.740000000000000000e+02	2.083829100425134584e+03
5.750000000000000000e+02	2.129198300845067934e+03
5.760000000000000000e+02	2.174890993143368178e+03
5.770000000000000000e+02	2.220885916285198164e+03
5.780000000000000000e+02	2.267161076541301099e+03
5.790000000000000000e+02	2.313693759137830057e+03
5.800000000000000000e+02	2.360460541262906645e+03
5.810000000000000000e+02	2.407437306434089351e+03
5.820000000000000000e+02	2.454599260228098046e+03
5.830000000000000000e+02	2.501920947371223519e+03
5.840000000000000000e+02	2.549376270185883186e+03
5.850000000000000000e+02	2.596938508385762361e+03
5.860000000000000000e+02	2.644580340208932739e+03
5.870000000000000000e+02	2.692273864875247000e+03
5.880000000000000000e+02	2.739990626351189348e+03
5.890000000000000000e+02	2.787701638402238586e+03
5.900000000000000000e+02	2.835377410909658010e+03
5.910000000000000000e+02	2.882987977425490044e+03
5.920000000000000000e+02	2.930502923936393472e+03
5.930000000000000000e+02	2.977891418803867964e+03
5.940000000000000000e+02	3.025122243845305547e+03
5.950000000000000000e+02	3.072163826517280995e+03
5.960000000000000000e+02	3.118984273159456279e+03
5.970000000000000000e+02	3.165551403254565685e+03
5.980000000000000000e+02	3.211832784657020056e+03
5.990000000000000000e+02	3.257795769739885600e+03
6.000000000000000000e+02	3.303407532407222789e+03
6.010000000000000000e+02	3.348635105916170232e+03
6.020000000000000000e+02	3.393445421450561298e+03
6.030000000000000000e+02	3.437805347385454752e+03
6.040000000000000000e+02	3.481681729179632384e+03
6.050000000000000000e+02	3.525041429830891502e+03
6.060000000000000000e+02	3.567851370826904713e+03
6.070000000000000000e+02	3.610078573522495390e+03
6.080000000000000000e+02	3.651690200872357309e+03
6.090000000000000000e+02	3.692653599446643966e+03
6.100000000000000000e+02	3.732936341655348770e+03
6.110000000000000000e+02	3.772506268106100379e+03
6.120000000000000000e+02	3.811331530018845569e+03
6.130000000000000000e+02	3.849380631619923861e+03
6.140000000000000000e+02	3.886622472437253236e+03
6.150000000000000000e+02	3.923026389417735572e+03
6.160000000000000000e+02	3.958562198787576108e+03
6.170000000000000000e+02	3.993200237575985284e+03
6.180000000000000000e+02	4.026911404722692168e+03
6.190000000000000000e+02	4.059667201689862850e+03
6.200000000000000000e+02	4.091439772499374158e+03
6.210000000000000000e+02	4.122201943116946495e+03
6.220000000000000000e+02	4.151927260105384448e+03
6.230000000000000000e+02	4.180590028470136531e+03
6.240000000000000000e+02	4.208165348621510930e+03
6.250000000000000000e+02	4.234629152379232437e+03
6.260000000000000000e+02	4.259958237946556437e+03
6.270000000000000000e+02	4.284130303782865667e+03
6.280000000000000000e+02	4.307123981305584493e+03
6.290000000000000000e+02	4.328918866354331840e+03
6.300000000000000000e+02	4.349495549352489434e+03
6.310000000000000000e+02	4.368835644103804043e+03
6.320000000000000000e+02	4.386921815164235340e+03
6.330000000000000000e+02	4.403737803732018619e+03
6.340000000000000000e+02	4.419268452001829246e+03
6.350000000000000000e+02	4.433499725931987996e+03
6.360000000000000000e+02	4.446418736376844208e+03
6.370000000000000000e+02	4.458013758539784249e+03
6.380000000000000000e+02	4.468274249705791590e+03
6.390000000000000000e+02	4.477190865215987287e+03
6.400000000000000000e+02	4.484755472650293996e+03
6.410000000000000000e+02	4.490961164188078328e+03
6.420000000000000000e+02	4.495802267120470788e+03
6.430000000000000000e+02	4.499274352491977879e+03
6.440000000000000000e+02	4.501374241852950945e+03
6.450000000000000000e+02	4.502100012108505325e+03
6.460000000000000000e+02	4.501450998453528882e+03
6.470000000000000000e+02	4.499427795387513470e+03
6.480000000000000000e+02	4.496032255807039292e+03
6.490000000000000000e+02	4.491267488177856649e+03
6.500000000000000000e+02	4.485137851792594120e+03
6.510000000000000000e+02	4.477648950124236762e+03
6.520000000000000000e+02	4.468807622289544270e+03
6.530000000000000000e+02	4.458621932640634441e+03
6.540000000000000000e+02	4.447101158506881802e+03
6.550000000000000000e+02	4.434255776113232059e+03
6.560000000000000000e+02	4.420097444704850204e+03
6.570000000000000000e+02	4.404638988911772685e+03
6.580000000000000000e+02	4.387894379390902941e+03
6.590000000000000000e+02	4.369878711786262102e+03
6.600000000000000000e+02	4.350608184051827266e+03
6.610000000000000000e+02	4.330100072184665805e+03
6.620000000000000000e+02	4.308372704419228285e+03
6.630000000000000000e+02	4.285445433936762129e+03
6.640000000000000000e+02	4.261338610146711289e+03
6.650000000000000000e+02	4.236073548599741116e+03
6.660000000000000000e+02	4.209672499594630608e+03
6.670000000000000000e+02	4.182158615543716223e+03
6.680000000000000000e+02	4.153555917163865161e+03
6.690000000000000000e+02	4.123889258562005125e+03
6.700000000000000000e+02	4.093184291286199368e+03
6.710000000000000000e+02	4.061467427414954727e+03
6.720000000000000000e+02	4.028765801759007900e+03
6.730000000000000000e+02	3.995107233251163507e+03
6.740000000000000000e+02	3.960520185600929381e+03
6.750000000000000000e+02	3.925033727291652212e+03
6.760000000000000000e+02	3.888677490998601570e+03
6.770000000000000000e+02	3.851481632507041468e+03
6.780000000000000000e+02	3.813476789209667459e+03
6.790000000000000000e+02	3.774694038262985032e+03
6.800000000000000000e+02	3.735164854482167357e+03
6.810000000000000000e+02	3.694921068053709860e+03
6.820000000000000000e+02	3.653994822144808950e+03
6.830000000000000000e+02	3.612418530487776479e+03
6.840000000000000000e+02	3.570224835017045734e+03
6.850000000000000000e+02	3.527446563635337043e+03
6.860000000000000000e+02	3.484116688184451050e+03
6.870000000000000000e+02	3.440268282694823029e+03
6.880000000000000000e+02	3.395934481986517312e+03
6.890000000000000000e+02	3.351148440692717031e+03
6.900000000000000000e+02	3.305943292774965812e+03
6.910000000000000000e+02	3.260352111597516796e+03
6.920000000000000000e+02	3.214407870626054773e+03
6.930000000000000000e+02	3.168143404813877169e+03
6.940000000000000000e+02	3.121591372736298581e+03
6.950000000000000000e+02	3.074784219531600684e+03
6.960000000000000000e+02	3.027754140704319070e+03
6.970000000000000000e+02	2.980533046844006094e+03
6.980000000000000000e+02	2.933152529309888905e+03
6.990000000000000000e+02	2.885643826929023817e+03
7.000000000000000000e+02	2.838037793752665948e+03
7.010000000000000000e+02	2.790364867912628142e+03
7.020000000000000000e+02	2.742655041616386825e+03
7.030000000000000000e+02	2.694937832316679305e+03
7.040000000000000000e+02	2.647242255088208822e+03
7.050000000000000000e+02	2.599596796240997719e+03
7.060000000000000000e+02	2.552029388196784566e+03
7.070000000000000000e+02	2.504567385651733275e+03
7.080000000000000000e+02	2.457237543045556777e+03
7.090000000000000000e+02	2.410065993354074180e+03
7.100000000000000000e+02	2.363078228219045741e+03
7.110000000000000000e+02	2.316299079426097251e+03
7.120000000000000000e+02	2.269752701738437736e+03
7.130000000000000000e+02	2.223462557091089366e+03
7.140000000000000000e+02	2.177451400147369441e+03
7.150000000000000000e+02	2.131741265216425290e+03
7.160000000000000000e+02	2.086353454527807571e+03
7.170000000000000000e+02	2.041308527856247792e+03
7.180000000000000000e+02	1.996626293487109024e+03
7.190000000000000000e+02	1.952325800510333465e+03
7.200000000000000000e+02	1.908425332428183765e+03
7.210000000000000000e+02	1.864942402059595224e+03
7.220000000000000000e+02	1.821893747721607951e+03
7.230000000000000000e+02	1.779295330666079735e+03
7.240000000000000000e+02	1.737162333747730145e+03
7.250000000000000000e+02	1.695509161297499986e+03
7.260000000000000000e+02	1.654349440173287803e+03
7.270000000000000000e+02	1.613696021958275651e+03
7.280000000000000000e+02	1.573560986275361074e+03
7.290000000000000000e+02	1.533955645184604919e+03
7.300000000000000000e+02	1.494890548629131445e+03
7.310000000000000000e+02	1.456375490893553206e+03
7.320000000000000000e+02	1.418419518037764419e+03
7.330000000000000000e+02	1.381030936267822426e+03
7.340000000000000000e+02	1.344217321204640712e+03
7.350000000000000000e+02	1.307985528010346115e+03
7.360000000000000000e+02	1.272341702331391389e+03
7.370000000000000000e+02	1.237291292016874650e+03
7.380000000000000000e+02	1.202839059570009567e+03
7.390000000000000000e+02	1.168989095290261275e+03
7.400000000000000000e+02	1.135744831063397896e+03
7.410000000000000000e+02	1.103109054756502246e+03
7.420000000000000000e+02	1.071083925174935075e+03
7.430000000000000000e+02	1.039670987538258260e+03
7.440000000000000000e+02	1.008871189432276083e+03
7.450000000000000000e+02	9.786848971945764788e+02
7.460000000000000000e+02	9.491119126912883530e+02
7.470000000000000000e+02	9.201514904431976447e+02
7.480000000000000000e+02	8.918023550598700240e+02
7.490000000000000000e+02	8.640627189410208757e+02
7.500000000000000000e+02	8.369303002050617124e+02
7.510000000000000000e+02	8.104023408054833908e+02
7.520000000000000000e+02	7.844756247965763123e+02
7.530000000000000000e+02	7.591464967108635165e+02
7.540000000000000000e+02	7.344108800115841404e+02
7.550000000000000000e+02	7.102642955845692541e+02
7.560000000000000000e+02	6.867018802349142561e+02
7.570000000000000000e+02	6.637184051549681953e+02
7.580000000000000000e+02	6.413082943313122541e+02
7.590000000000000000e+02	6.194656428595972102e+02
7.600000000000000000e+02	5.981842351373409201e+02
7.610000000000000000e+02	5.774575629060450410e+02
7.620000000000000000e+02	5.572788431152840758e+02
7.630000000000000000e+02	5.376410355827206331e+02
7.640000000000000000e+02	5.185368604253351350e+02
7.650000000000000000e+02	4.999588152384943669e+02
7.660000000000000000e+02	4.818991920008332386e+02
7.670000000000000000e+02	4.643500936842816600e+02
7.680000000000000000e+02	4.473034505499184093e+02
7.690000000000000000e+02	4.307510361116952708e+02
7.700000000000000000e+02	4.146844827514167946e+02
7.710000000000000000e+02	3.990952969697042363e+02
7.720000000000000000e+02	3.839748742589944186e+02
7.730000000000000000e+02	3.693145135859390393e+02
7.740000000000000000e+02	3.551054314718584237e+02
7.750000000000000000e+02	3.413387756611762143e+02
7.760000000000000000e+02	3.280056383690111375e+02
7.770000000000000000e+02	3.150970691003111597e+02
7.780000000000000000e+02	3.026040870341242908e+02
7.790000000000000000e+02	2.905176929677443241e+02
7.800000000000000000e+02	2.788288808166078638e+02
7.810000000000000000e+02	2.675286486669085662e+02
7.820000000000000000e+02	2.566080093789523175e+02
7.830000000000000000e+02	2.460580007402987235e+02
7.840000000000000000e+02	2.358696951687108481e+02
7.850000000000000000e+02	2.260342089658832379e+02
7.860000000000000000e+02	2.165427111238121540e+02
7.870000000000000000e+02	2.073864316865358433e+02
7.880000000000000000e+02	1.985566696707859933e+02
7.890000000000000000e+02	1.900448005498701036e+02
7.900000000000000000e+02	1.818422833058313870e+02
7.910000000000000000e+02	1.739406670556257382e+02
7.920000000000000000e+02	1.663315972576988884e+02
7.930000000000000000e+02	1.590068215059480963e+02
7.940000000000000000e+02	1.519581949186163854e+02
7.950000000000000000e+02	1.451776851301827946e+02
7.960000000000000000e+02	1.386573768947859264e+02
7.970000000000000000e+02	1.323894763101579315e+02
7.980000000000000000e+02	1.263663146714333152e+02
7.990000000000000000e+02	1.205803519645557316e+02
8.000000000000000000e+02	1.150241800093187834e+02
8.010000000000000000e+02	1.096905252623523097e+02
8.020000000000000000e+02	1.045722512906072694e+02
8.030000000000000000e+02	9.966236092609346997e+01
8.040000000000000000e+02	9.495399811279459357e+01
8.050000000000000000e+02	9.044044945681692127e+01
8.060000000000000000e+02	8.611514549093226378e+01
8.070000000000000000e+02	8.197166166474433169e+01
8.080000000000000000e+02	7.800371907174880448e+01
8.090000000000000000e+02	7.420518492456842807e+01
8.100000000000000000e+02	7.057007278962862529e+01
8.110000000000000000e+02	6.709254259249736663e+01
8.120000000000000000e+02	6.376690040504582413e+01
8.130000000000000000e+02	6.058759802549651141e+01
8.140000000000000000e+02	5.754923236231329042e+01
8.150000000000000000e+02	5.464654463275581975e+01
8.160000000000000000e+02	5.187441938676832365e+01
8.170000000000000000e+02	4.922788336670343057e+01
8.180000000000000000e+02	4.670210421319541183e+01
8.190000000000000000e+02	4.429238902729652239e+01
8.200000000000000000e+02	4.199418279877405524e+01
8.210000000000000000e+02	3.980306671023894438e+01
8.220000000000000000e+02	3.771475632653694987e+01
8.230000000000000000e+02	3.572509967858484714e+01
8.240000000000000000e+02	3.383007525057607978e+01
8.250000000000000000e+02	3.202578987921360465e+01
8.260000000000000000e+02	3.030847657335644385e+01
8.270000000000000000e+02	2.867449226218789704e+01
8.280000000000000000e+02	2.712031547973032275e+01
8.290000000000000000e+02	2.564254399324644496e+01
8.300000000000000000e+02	2.423789238277733560e+01
8.310000000000000000e+02	2.290318957877794404e+01
8.320000000000000000e+02	2.163537636451901491e+01
8.330000000000000000e+02	2.043150284963394370e+01
8.340000000000000000e+02	1.928872592089822646e+01
8.350000000000000000e+02	1.820430667604061270e+01
8.360000000000000000e+02	1.717560784609890945e+01
8.370000000000000000e+02	1.620009121154876297e+01
8.380000000000000000e+02	1.527531501715449025e+01
8.390000000000000000e+02	1.439893139021427082e+01
8.400000000000000000e+02	1.356868376660036724e+01
8.410000000000000000e+02	1.278240432872832066e+01
8.420000000000000000e+02	1.203801145932812311e+01
8.430000000000000000e+02	1.133350721463416733e+01
8.440000000000000000e+02	1.066697482036216016e+01
8.450000000000000000e+02	1.003657619359789699e+01
8.460000000000000000e+02	9.440549493486734889e+00
8.470000000000000000e+02	8.877206703383405895e+00
8.480000000000000000e+02	8.344931246900035404e+00
8.490000000000000000e+02	7.842175640075105036e+00
8.500000000000000000e+02	7.367459181679465452e+00
8.510000000000000000e+02	6.919365683475567685e+00
8.520000000000000000e+02	6.496541242054107990e+00
8.530000000000000000e+02	6.097692053688430924e+00
8.540000000000000000e+02	5.721582273470144919e+00
8.550000000000000000e+02	5.367031919820921537e+00
8.560000000000000000e+02	5.032914825314382057e+00
8.570000000000000000e+02	4.718156634588575038e+00
8.580000000000000000e+02	4.421732849983903257e+00
8.590000000000000000e+02	4.142666925403046818e+00
8.600000000000000000e+02	3.880028408758768421e+00
8.610000000000000000e+02	3.632931133251954492e+00
8.620000000000000000e+02	3.400531457605893593e+00
8.630000000000000000e+02	3.182026555273761659e+00
8.640000000000000000e+02	2.976652752533655466e+00
8.650000000000000000e+02	2.783683915290084965e+00
8.660000000000000000e+02	2.602429884311653563e+00
8.670000000000000000e+02	2.432234958551898085e+00
8.680000000000000000e+02	2.272476426123782201e+00
8.690000000000000000e+02	2.122563142427657201e+00
8.700000000000000000e+02	1.981934154867793119e+00
8.710000000000000000e+02	1.850057373533255722e+00
8.720000000000000000e+02	1.726428287165111763e+00
8.730000000000000000e+02	1.610568723683172498e+00
8.740000000000000000e+02	1.502025654501730534e+00
8.750000000000000000e+02	1.400370041824712253e+00
8.760000000000000000e+02	1.305195728076109951e+00
8.770000000000000000e+02	1.216118366591372402e+00
8.780000000000000000e+02	1.132774392669290808e+00
8.790000000000000000e+02	1.054820034061706435e+00
8.800000000000000000e+02	9.819303599598033783e-01
8.810000000000000000e+02	9.137983675206967638e-01
8.820000000000000000e+02	8.501341049662864968e-01
8.830000000000000000e+02	7.906638302776227700e-01
8.840000000000000000e+02	7.351292045022617128e-01
8.850000000000000000e+02	6.832865186890592080e-01
8.860000000000000000e+02	6.349059534642684799e-01
8.870000000000000000e+02	5.897708702647038725e-01
8.880000000000000000e+02	5.476771332476914056e-01
8.890000000000000000e+02	5.084324609036205977e-01
8.900000000000000000e+02	4.718558064048080092e-01
8.910000000000000000e+02	4.377767657339960428e-01
8.920000000000000000e+02	4.060350126470255727e-01
8.930000000000000000e+02	3.764797595368132299e-01
8.940000000000000000e+02	3.489692432796799859e-01
8.950000000000000000e+02	3.233702351601228653e-01
8.960000000000000000e+02	2.995575739862324505e-01
8.970000000000000000e+02	2.774137215249575239e-01
8.980000000000000000e+02	2.568283394042426004e-01
8.990000000000000000e+02	2.376978866475701890e-01
9.000000000000000000e+02	2.199252370255652400e-01
9.010000000000000000e+02	2.034193154289276328e-01
9.020000000000000000e+02	1.880947524869972243e-01
9.030000000000000000e+02	1.738715566766131926e-01
9.040000000000000000e+02	1.606748031865547210e-01
9.050000000000000000e+02	1.484343388236333550e-01
9.060000000000000000e+02	1.370845022674270497e-01
9.070000000000000000e+02	1.265638590015844278e-01
9.080000000000000000e+02	1.168149502705790738e-01
9.090000000000000000e+02	1.077840554316640692e-01
9.100000000000000000e+02	9.942096709253583908e-02
9.110000000000000000e+02	9.167877844581157065e-02
9.120000000000000000e+02	8.451368223181826567e-02
9.130000000000000000e+02	7.788478078134050686e-02
9.140000000000000000e+02	7.175390660984397317e-02
9.150000000000000000e+02	6.608545305426358207e-02
9.160000000000000000e+02	6.084621446266829520e-02
9.170000000000000000e+02	5.600523546598850516e-02
9.180000000000000000e+02	5.153366887948292868e-02
9.190000000000000000e+02	4.740464179970595854e-02
9.200000000000000000e+02	4.359312948041449420e-02
9.210000000000000000e+02	4.007583658809456273e-02
9.220000000000000000e+02	3.683108545459073957e-02
9.230000000000000000e+02	3.383871096067560952e-02
9.240000000000000000e+02	3.107996170029157443e-02
9.250000000000000000e+02	2.853740709063232184e-02
9.260000000000000000e+02	2.619485010819917747e-02
9.270000000000000000e+02	2.403724534547075492e-02
9.280000000000000000e+02	2.205062209685827029e-02
9.290000000000000000e+02	2.022201219618814313e-02
9.300000000000000000e+02	1.853938234105788341e-02
9.310000000000000000e+02	1.699157065205856090e-02
9.320000000000000000e+02	1.556822722704426926e-02
9.330000000000000000e+02	1.425975846237253347e-02
9.340000000000000000e+02	1.305727492433412552e-02
9.350000000000000000e+02	1.195254256485357713e-02
9.360000000000000000e+02	1.093793708597380968e-02
9.370000000000000000e+02	1.000640126765206007e-02
9.380000000000000000e+02	9.151405082996584908e-03
9.390000000000000000e+02	8.366908434275429143e-03
9.400000000000000000e+02	7.647326351838276692e-03
9.410000000000000000e+02	6.987496506521216622e-03
9.420000000000000000e+02	6.382648894161783992e-03
9.430000000000000000e+02	5.828377558549254628e-03
9.440000000000000000e+02	5.320614226482663772e-03
9.450000000000000000e+02	4.855603735617717784e-03
9.460000000000000000e+02	4.429881142464967871e-03
9.470000000000000000e+02	4.040250404264867680e-03
9.480000000000000000e+02	3.683764534523068131e-03
9.490000000000000000e+02	3.357707137751410244e-03
9.500000000000000000e+02	3.059575234437138681e-03
9.510000000000000000e+02	2.787063292466393765e-03
9.520000000000000000e+02	2.538048386167585536e-03
9.530000000000000000e+02	2.310576408826590152e-03
9.540000000000000000e+02	2.102849268969198427e-03
9.550000000000000000e+02	1.913213004916138873e-03
9.560000000000000000e+02	1.740146756102856464e-03
9.570000000000000000e+02	1.582252533429127613e-03
9.580000000000000000e+02	1.438245734471731586e-03
9.590000000000000000e+02	1.306946352766316178e-03
9.600000000000000000e+02	1.187270833550644559e-03
9.610000000000000000e+02	1.078224531369289954e-03
9.620000000000000000e+02	9.788947277781119821e-04
9.630000000000000000e+02	8.884441700630524600e-04
9.640000000000000000e+02	8.061050944101591552e-04
9.650000000000000000e+02	7.311736993396003364e-04
9.660000000000000000e+02	6.630050374529458408e-04
9.670000000000000000e+02	6.010082956473715909e-04
9.680000000000000000e+02	5.446424359291801446e-04
9.690000000000000000e+02	4.934121708188116085e-04
9.700000000000000000e+02	4.468642490863412842e-04
9.710000000000000000e+02	4.045840291964843561e-04
9.720000000000000000e+02	3.661923193809696895e-04
9.730000000000000000e+02	3.313424646992210384e-04
9.740000000000000000e+02	2.997176628010143938e-04
9.750000000000000000e+02	2.710284913719697864e-04
9.760000000000000000e+02	2.450106314293099756e-04
9.770000000000000000e+02	2.214227717457430578e-04
9.780000000000000000e+02	2.000446807180587686e-04
9.790000000000000000e+02	1.806754329680550046e-04
9.800000000000000000e+02	1.631317788708512042e-04
9.810000000000000000e+02	1.472466460531155386e-04
9.820000000000000000e+02	1.328677626948387091e-04
9.830000000000000000e+02	1.198563932064351437e-04
9.840000000000000000e+02	1.080861775413228246e-04
9.850000000000000000e+02	9.744206604575581215e-05
9.860000000000000000e+02	8.781934234546956647e-05
9.870000000000000000e+02	7.912272732537312526e-05
9.880000000000000000e+02	7.126555777661794627e-05
9.890000000000000000e+02	6.416903376739903494e-05
9.900000000000000000e+02	5.776152924203812493e-05
9.910000000000000000e+02	5.197796076947380620e-05
9.920000000000000000e+02	4.675920974927250660e-05
9.930000000000000000e+02	4.205159374260891274e-05
9.940000000000000000e+02	3.780638292917851606e-05
9.950000000000000000e+02	3.397935800038380121e-05
9.960000000000000000e+02	3.053040608602415590e-05
9.970000000000000000e+02	2.742315157760304032e-05
9.980000000000000000e+02	2.462461895768563563e-05
9.990000000000000000e+02	2.210492497282377539e-05
1.000000000000000000e+03	1.983699769866964973e-05
