4.410000000000000000e+02	1.978846256343733678e+00
4.420000000000000000e+02	2.108923235846441813e+00
4.430000000000000000e+02	2.246922830763765422e+00
4.440000000000000000e+02	2.393283845480928207e+00
4.450000000000000000e+02	2.548466497449881629e+00
4.460000000000000000e+02	2.712953281105995540e+00
4.470000000000000000e+02	2.887249855812770161e+00
4.480000000000000000e+02	3.071885957856559379e+00
4.490000000000000000e+02	3.267416336466322679e+00
4.500000000000000000e+02	3.474421713783257815e+00
4.510000000000000000e+02	3.693509768652036396e+00
4.520000000000000000e+02	3.925316144049276534e+00
4.530000000000000000e+02	4.170505477905301461e+00
4.540000000000000000e+02	4.429772457012860265e+00
4.550000000000000000e+02	4.703842893650553414e+00
4.560000000000000000e+02	4.993474824479655183e+00
4.570000000000000000e+02	5.299459631200665655e+00
4.580000000000000000e+02	5.622623182380170448e+00
4.590000000000000000e+02	5.963826995779645479e+00
4.600000000000000000e+02	6.323969420435426869e+00
4.610000000000000000e+02	6.703986837653405750e+00
4.620000000000000000e+02	7.104854879993033556e+00
4.630000000000000000e+02	7.527589667223151260e+00
4.640000000000000000e+02	7.973249058136341105e+00
4.650000000000000000e+02	8.442933917010318368e+00
4.660000000000000000e+02	8.937789393402692184e+00
4.670000000000000000e+02	9.459006213861021806e+00
4.680000000000000000e+02	1.000782198402211165e+01
4.690000000000000000e+02	1.058552249946414747e+01
4.700000000000000000e+02	1.119344306356172680e+01
4.710000000000000000e+02	1.183296981047846863e+01
4.720000000000000000e+02	1.250554103131287853e+01
4.730000000000000000e+02	1.321264850129346335e+01
4.740000000000000000e+02	1.395583880579568792e+01
4.750000000000000000e+02	1.473671466282961084e+01
4.760000000000000000e+02	1.555693623952163662e+01
4.770000000000000000e+02	1.641822245999788521e+01
4.780000000000000000e+02	1.732235230203131948e+01
4.790000000000000000e+02	1.827116608027861488e+01
4.800000000000000000e+02	1.926656671768369833e+01
4.810000000000000000e+02	2.031052103008465082e+01
4.820000000000000000e+02	2.140506118184046258e+01
4.830000000000000000e+02	2.255228716376822007e+01
4.840000000000000000e+02	2.375437449260849831e+01
4.850000000000000000e+02	2.501360625636529633e+01
4.860000000000000000e+02	2.633250995851241072e+01
4.870000000000000000e+02	2.771441134696062392e+01
4.880000000000000000e+02	2.916552017610472092e+01
4.890000000000000000e+02	3.070220244907893914e+01
4.900000000000000000e+02	3.237439230878582208e+01
4.910000000000000000e+02	3.433501178398523734e+01
4.920000000000000000e+02	3.702898614310108627e+01
4.930000000000000000e+02	4.166396628774823796e+01
4.940000000000000000e+02	5.127676761190447507e+01
4.950000000000000000e+02	7.291417591525821251e+01
4.960000000000000000e+02	1.216100425060086820e+02
4.970000000000000000e+02	2.267220048347753334e+02
4.980000000000000000e+02	4.404017101581508200e+02
4.990000000000000000e+02	8.461508210920345618e+02
5.000000000000000000e+02	1.562661590300571788e+03
5.010000000000000000e+02	2.735569140766639975e+03
5.020000000000000000e+02	4.509653765577791091e+03
5.030000000000000000e+02	6.979033698820720019e+03
5.040000000000000000e+02	1.012376669640179898e+04
5.050000000000000000e+02	1.375467094177518265e+04
5.060000000000000000e+02	1.749631214666326196e+04
5.070000000000000000e+02	2.083243348645136211e+04
5.080000000000000000e+02	2.321582799537830942e+04
5.090000000000000000e+02	2.421361597207385421e+04
5.100000000000000000e+02	2.363563413746934748e+04
5.110000000000000000e+02	2.159376424418881288e+04
5.120000000000000000e+02	1.846683222569688223e+04
5.130000000000000000e+02	1.478617032771579579e+04
5.140000000000000000e+02	1.108922631247878417e+04
5.150000000000000000e+02	7.796192088894940753e+03
5.160000000000000000e+02	5.146394521746532519e+03
5.170000000000000000e+02	3.200429114129558457e+03
5.180000000000000000e+02	1.888180479946604237e+03
5.190000000000000000e+02	1.072669125758462087e+03
5.200000000000000000e+02	6.048512846868535462e+02
5.210000000000000000e+02	3.573821553472949404e+02
5.220000000000000000e+02	2.374322793310514896e+02
5.230000000000000000e+02	1.852715255948139088e+02
5.240000000000000000e+02	1.663746884413026805e+02
5.250000000000000000e+02	1.626273723285187884e+02
5.260000000000000000e+02	1.653450316264374180e+02
5.270000000000000000e+02	1.707063162301654415e+02
5.280000000000000000e+02	1.771639440486276840e+02
5.290000000000000000e+02	1.841412866852612922e+02
5.300000000000000000e+02	1.914416821335668715e+02
5.310000000000000000e+02	1.990053477263151365e+02
5.320000000000000000e+02	2.068179943346097502e+02
5.330000000000000000e+02	2.148793064291594987e+02
5.340000000000000000e+02	2.231929338078229819e+02
5.350000000000000000e+02	2.317635564868054985e+02
5.360000000000000000e+02	2.405960854470532411e+02
5.370000000000000000e+02	2.496954572719992598e+02
5.380000000000000000e+02	2.590665810963180320e+02
5.390000000000000000e+02	2.687143215556866380e+02
5.400000000000000000e+02	2.786434894949163095e+02
5.410000000000000000e+02	2.888588341025288742e+02
5.420000000000000000e+02	2.993650351619949106e+02
5.430000000000000000e+02	3.101666951728016102e+02
5.440000000000000000e+02	3.212683313029222631e+02
5.450000000000000000e+02	3.326743671724923956e+02
5.460000000000000000e+02	3.443891244754257741e+02
5.470000000000000000e+02	3.564168144472841959e+02
5.480000000000000000e+02	3.687615291884756630e+02
5.490000000000000000e+02	3.814272328524744466e+02
5.500000000000000000e+02	3.944177527093773961e+02
5.510000000000000000e+02	4.077367700957078114e+02
5.520000000000000000e+02	4.213878112619879062e+02
5.530000000000000000e+02	4.353742381301956925e+02
5.540000000000000000e+02	4.496992389738105658e+02
5.550000000000000000e+02	4.643658190337361020e+02
5.560000000000000000e+02	4.793767910839557658e+02
5.570000000000000000e+02	4.947347659613359383e+02
5.580000000000000000e+02	5.104421430745375687e+02
5.590000000000000000e+02	5.265011009075160473e+02
5.600000000000000000e+02	5.429135875336095296e+02
5.610000000000000000e+02	5.596813111566948464e+02
5.620000000000000000e+02	5.768057306963628434e+02
5.630000000000000000e+02	5.942880464345073506e+02
5.640000000000000000e+02	6.121291907411379043e+02
5.650000000000000000e+02	6.303298188976183383e+02
5.660000000000000000e+02	6.488903000358956206e+02
5.670000000000000000e+02	6.678107082126058458e+02
5.680000000000000000e+02	6.870908136372530635e+02
5.690000000000000000e+02	7.067300740739075309e+02
5.700000000000000000e+02	7.267276264360989444e+02
5.710000000000000000e+02	7.470822785947747207e+02
5.720000000000000000e+02	7.677925014193276638e+02
5.730000000000000000e+02	7.888564210718203640e+02
5.740000000000000000e+02	8.102718115745833529e+02
5.750000000000000000e+02	8.320360876713961034e+02
5.760000000000000000e+02	8.541462980024258513e+02
5.770000000000000000e+02	8.765991186130377173e+02
5.780000000000000000e+02	8.993908468164602255e+02
5.790000000000000000e+02	9.225173954301344565e+02
5.800000000000000000e+02	9.459742874053472406e+02
5.810000000000000000e+02	9.697566508694966387e+02
5.820000000000000000e+02	9.938592146000028151e+02
5.830000000000000000e+02	1.018276303948527925e+03
5.840000000000000000e+02	1.043001837233733340e+03
5.850000000000000000e+02	1.068029322620343919e+03
5.860000000000000000e+02	1.093351855501750379e+03
5.870000000000000000e+02	1.118962116402823540e+03
5.880000000000000000e+02	1.144852369418971648e+03
5.890000000000000000e+02	1.171014461206802480e+03
5.900000000000000000e+02	1.197439820541015251e+03
5.910000000000000000e+02	1.224119458451384389e+03
5.920000000000000000e+02	1.251043968952841851e+03
5.930000000000000000e+02	1.278203530380816574e+03
5.940000000000000000e+02	1.305587907343042161e+03
5.950000000000000000e+02	1.333186453298091010e+03
5.960000000000000000e+02	1.360988113769866004e+03
5.970000000000000000e+02	1.388981430206229788e+03
5.980000000000000000e+02	1.417154544488852935e+03
5.990000000000000000e+02	1.445495204100222736e+03
6.000000000000000000e+02	1.473990767952579063e+03
6.010000000000000000e+02	1.502628212882336584e+03
6.020000000000000000e+02	1.531394140812304386e+03
6.030000000000000000e+02	1.560274786582753222e+03
6.040000000000000000e+02	1.589256026451064145e+03
6.050000000000000000e+02	1.618323387258383264e+03
6.060000000000000000e+02	1.647462056260350892e+03
6.070000000000000000e+02	1.676656891617613155e+03
6.080000000000000000e+02	1.705892433540440152e+03
6.090000000000000000e+02	1.735152916080386831e+03
6.100000000000000000e+02	1.764422279560519883e+03
6.110000000000000000e+02	1.793684183634340798e+03
6.120000000000000000e+02	1.822922020962109400e+03
6.130000000000000000e+02	1.852118931491872900e+03
6.140000000000000000e+02	1.881257817331099659e+03
6.150000000000000000e+02	1.910321358193414881e+03
6.160000000000000000e+02	1.939292027403561860e+03
6.170000000000000000e+02	1.968152108442332974e+03
6.180000000000000000e+02	1.996883712011879879e+03
6.190000000000000000e+02	2.025468793600468416e+03
6.200000000000000000e+02	2.053889171524469930e+03
6.210000000000000000e+02	2.082126545424090637e+03
6.220000000000000000e+02	2.110162515188120778e+03
6.230000000000000000e+02	2.137978600281790023e+03
6.240000000000000000e+02	2.165556259450651851e+03
6.250000000000000000e+02	2.192876910772328301e+03
6.260000000000000000e+02	2.219921952026867075e+03
6.270000000000000000e+02	2.246672781355468487e+03
6.280000000000000000e+02	2.273110818176391604e+03
6.290000000000000000e+02	2.299217524325923478e+03
6.300000000000000000e+02	2.324974425391506429e+03
6.310000000000000000e+02	2.350363132203311125e+03
6.320000000000000000e+02	2.375365362449854274e+03
6.330000000000000000e+02	2.399962962382632213e+03
6.340000000000000000e+02	2.424137928574163197e+03
6.350000000000000000e+02	2.447872429693361937e+03
6.360000000000000000e+02	2.471148828261732888e+03
6.370000000000000000e+02	2.493949702353561406e+03
6.380000000000000000e+02	2.516257867203004025e+03
6.390000000000000000e+02	2.538056396680814487e+03
6.400000000000000000e+02	2.559328644603346220e+03
6.410000000000000000e+02	2.580058265836467399e+03
6.420000000000000000e+02	2.600229237157081116e+03
6.430000000000000000e+02	2.619825877835134634e+03
6.440000000000000000e+02	2.638832869899204979e+03
6.450000000000000000e+02	2.657235278049100089e+03
6.460000000000000000e+02	2.675018569179329916e+03
6.470000000000000000e+02	2.692168631477774852e+03
6.480000000000000000e+02	2.708671793064485428e+03
6.490000000000000000e+02	2.724514840136188013e+03
6.500000000000000000e+02	2.739685034582832031e+03
6.510000000000000000e+02	2.754170131043326364e+03
6.520000000000000000e+02	2.767958393368522593e+03
6.530000000000000000e+02	2.781038610460476775e+03
6.540000000000000000e+02	2.793400111458086485e+03
6.550000000000000000e+02	2.805032780240310331e+03
6.560000000000000000e+02	2.815927069219393161e+03
6.570000000000000000e+02	2.826074012397770730e+03
6.580000000000000000e+02	2.835465237663662720e+03
6.590000000000000000e+02	2.844092978301756830e+03
6.600000000000000000e+02	2.851950083696824095e+03
6.610000000000000000e+02	2.859030029209627628e+03
6.620000000000000000e+02	2.865326925206022224e+03
6.630000000000000000e+02	2.870835525221760690e+03
6.640000000000000000e+02	2.875551233247159871e+03
6.650000000000000000e+02	2.879470110117463719e+03
6.660000000000000000e+02	2.882588878996475614e+03
6.670000000000000000e+02	2.884904929942760191e+03
6.680000000000000000e+02	2.886416323549517529e+03
6.690000000000000000e+02	2.887121793651023381e+03
6.700000000000000000e+02	2.887020749090338541e+03
6.710000000000000000e+02	2.886113274544846718e+03
6.720000000000000000e+02	2.884400130407992947e+03
6.730000000000000000e+02	2.881882751727468531e+03
6.740000000000000000e+02	2.878563246201903439e+03
6.750000000000000000e+02	2.874444391239991546e+03
6.760000000000000000e+02	2.869529630087787609e+03
6.770000000000000000e+02	2.863823067031737537e+03
6.780000000000000000e+02	2.857329461686797458e+03
6.790000000000000000e+02	2.850054222380765623e+03
6.800000000000000000e+02	2.842003398647706035e+03
6.810000000000000000e+02	2.833183672845039382e+03
6.820000000000000000e+02	2.823602350910574387e+03
6.830000000000000000e+02	2.813267352277363443e+03
6.840000000000000000e+02	2.802187198965878906e+03
6.850000000000000000e+02	2.790371003874534836e+03
6.860000000000000000e+02	2.777828458291077368e+03
6.870000000000000000e+02	2.764569818648797536e+03
6.880000000000000000e+02	2.750605892552895057e+03
6.890000000000000000e+02	2.735948024103644912e+03
6.900000000000000000e+02	2.720608078544246382e+03
6.910000000000000000e+02	2.704598426262438352e+03
6.920000000000000000e+02	2.687931926176057459e+03
6.930000000000000000e+02	2.670621908533754322e+03
6.940000000000000000e+02	2.652682157163052125e+03
6.950000000000000000e+02	2.634126891198800877e+03
6.960000000000000000e+02	2.614970746325904656e+03
6.970000000000000000e+02	2.595228755570897192e+03
6.980000000000000000e+02	2.574916329677611884e+03
6.990000000000000000e+02	2.554049237102723964e+03
7.000000000000000000e+02	2.532643583667441362e+03
7.010000000000000000e+02	2.510715791901988723e+03
7.020000000000000000e+02	2.488282580119861450e+03
7.030000000000000000e+02	2.465360941259021274e+03
7.040000000000000000e+02	2.441968121527360381e+03
7.050000000000000000e+02	2.418121598889807501e+03
7.060000000000000000e+02	2.393839061434419818e+03
7.070000000000000000e+02	2.369138385654687227e+03
7.080000000000000000e+02	2.344037614685081735e+03
7.090000000000000000e+02	2.318554936526621077e+03
7.100000000000000000e+02	2.292708662298830859e+03
7.110000000000000000e+02	2.266517204554096224e+03
7.120000000000000000e+02	2.239999055689856959e+03
7.130000000000000000e+02	2.213172766493526524e+03
7.140000000000000000e+02	2.186056924854379304e+03
7.150000000000000000e+02	2.158670134675905501e+03
7.160000000000000000e+02	2.131030995021365925e+03
7.170000000000000000e+02	2.103158079524420373e+03
7.180000000000000000e+02	2.075069916095795634e+03
7.190000000000000000e+02	2.046784966955995742e+03
7.200000000000000000e+02	2.018321609023023939e+03
7.210000000000000000e+02	1.989698114683030553e+03
7.220000000000000000e+02	1.960932632970665509e+03
7.230000000000000000e+02	1.932043171184757739e+03
7.240000000000000000e+02	1.903047576963741221e+03
7.250000000000000000e+02	1.873963520843995411e+03
7.260000000000000000e+02	1.844808479323004576e+03
7.270000000000000000e+02	1.815599718447925852e+03
7.280000000000000000e+02	1.786354277948831850e+03
7.290000000000000000e+02	1.757088955934532805e+03
7.300000000000000000e+02	1.727820294167517659e+03
7.310000000000000000e+02	1.698564563933163754e+03
7.320000000000000000e+02	1.669337752516964201e+03
7.330000000000000000e+02	1.640155550302119991e+03
7.340000000000000000e+02	1.611033338498430112e+03
7.350000000000000000e+02	1.581986177512007544e+03
7.360000000000000000e+02	1.553028795963936545e+03
7.370000000000000000e+02	1.524175580364590132e+03
7.380000000000000000e+02	1.495440565448933057e+03
7.390000000000000000e+02	1.466837425176763873e+03
7.400000000000000000e+02	1.438379464400479947e+03
7.410000000000000000e+02	1.410079611201617581e+03
7.420000000000000000e+02	1.381950409896094015e+03
7.430000000000000000e+02	1.354004014706789349e+03
7.440000000000000000e+02	1.326252184100836303e+03
7.450000000000000000e+02	1.298706275787757022e+03
7.460000000000000000e+02	1.271377242373377612e+03
7.470000000000000000e+02	1.244275627663296746e+03
7.480000000000000000e+02	1.217411563608540064e+03
7.490000000000000000e+02	1.190794767884960493e+03
7.500000000000000000e+02	1.164434542096884115e+03
7.510000000000000000e+02	1.138339770594510355e+03
7.520000000000000000e+02	1.112518919893601378e+03
7.530000000000000000e+02	1.086980038685098179e+03
7.540000000000000000e+02	1.061730758421424980e+03
7.550000000000000000e+02	1.036778294465436147e+03
7.560000000000000000e+02	1.012129447787181448e+03
7.570000000000000000e+02	9.877906071929618292e+02
7.580000000000000000e+02	9.637677520704744438e+02
7.590000000000000000e+02	9.400664556332324082e+02
7.600000000000000000e+02	9.166918886468855590e+02
7.610000000000000000e+02	8.936488236195546051e+02
7.620000000000000000e+02	8.709416394378324640e+02
7.630000000000000000e+02	8.485743264297052519e+02
7.640000000000000000e+02	8.265504918352812638e+02
7.650000000000000000e+02	8.048733656659170492e+02
7.660000000000000000e+02	7.835458069320789036e+02
7.670000000000000000e+02	7.625703102200661760e+02
7.680000000000000000e+02	7.419490125975739829e+02
7.690000000000000000e+02	7.216837008279665042e+02
7.700000000000000000e+02	7.017758188730678057e+02
7.710000000000000000e+02	6.822264756642698558e+02
7.720000000000000000e+02	6.630364531217837794e+02
7.730000000000000000e+02	6.442062144019399739e+02
7.740000000000000000e+02	6.257359123525567384e+02
7.750000000000000000e+02	6.076253981565562299e+02
7.760000000000000000e+02	5.898742301442053986e+02
7.770000000000000000e+02	5.724816827545935212e+02
7.780000000000000000e+02	5.554467556272252295e+02
7.790000000000000000e+02	5.387681828049223896e+02
7.800000000000000000e+02	5.224444420295526470e+02
7.810000000000000000e+02	5.064737641124862080e+02
7.820000000000000000e+02	4.908541423620638966e+02
7.830000000000000000e+02	4.755833420507973415e+02
7.840000000000000000e+02	4.606589099054622238e+02
7.850000000000000000e+02	4.460781836037242556e+02
7.860000000000000000e+02	4.318383012614269774e+02
7.870000000000000000e+02	4.179362108951896175e+02
7.880000000000000000e+02	4.043686798454879749e+02
7.890000000000000000e+02	3.911323041459454544e+02
7.900000000000000000e+02	3.782235178251168009e+02
7.910000000000000000e+02	3.656386021276230167e+02
7.920000000000000000e+02	3.533736946420789309e+02
7.930000000000000000e+02	3.414247983238473125e+02
7.940000000000000000e+02	3.297877904012490262e+02
7.950000000000000000e+02	3.184584311544687125e+02
7.960000000000000000e+02	3.074323725569956309e+02
7.970000000000000000e+02	2.967051667700519602e+02
7.980000000000000000e+02	2.862722744810712925e+02
7.990000000000000000e+02	2.761290730778939633e+02
8.000000000000000000e+02	2.662708646509533992e+02
8.010000000000000000e+02	2.566928838163297542e+02
8.020000000000000000e+02	2.473903053531382170e+02
8.030000000000000000e+02	2.383582516493141270e+02
8.040000000000000000e+02	2.295917999504316072e+02
8.050000000000000000e+02	2.210859894067688458e+02
8.060000000000000000e+02	2.128358279143909613e+02
8.070000000000000000e+02	2.048362987465748120e+02
8.080000000000000000e+02	1.970823669724348690e+02
8.090000000000000000e+02	1.895689856601366614e+02
8.100000000000000000e+02	1.822911018625947293e+02
8.110000000000000000e+02	1.752436623840462744e+02
8.120000000000000000e+02	1.684216193263781918e+02
8.130000000000000000e+02	1.618199354145444602e+02
8.140000000000000000e+02	1.554335891008634292e+02
8.150000000000000000e+02	1.492575794484165783e+02
8.160000000000000000e+02	1.432869307941828083e+02
8.170000000000000000e+02	1.375166971929416206e+02
8.180000000000000000e+02	1.319419666433572331e+02
8.190000000000000000e+02	1.265578650980153554e+02
8.200000000000000000e+02	1.213595602595288909e+02
8.210000000000000000e+02	1.163422651651522983e+02
8.220000000000000000e+02	1.115012415626491560e+02
8.230000000000000000e+02	1.068318030804467327e+02
8.240000000000000000e+02	1.023293181953789883e+02
8.250000000000000000e+02	9.798921300156942493e+01
8.260000000000000000e+02	9.380697378423995758e+01
8.270000000000000000e+02	8.977814940244195441e+01
8.280000000000000000e+02	8.589835348490821332e+01
8.290000000000000000e+02	8.216326644339726215e+01
8.300000000000000000e+02	7.856863730806821877e+01
8.310000000000000000e+02	7.511028538956668399e+01
8.320000000000000000e+02	7.178410177263155845e+01
8.330000000000000000e+02	6.858605064614469882e+01
8.340000000000000000e+02	6.551217047464299981e+01
8.350000000000000000e+02	6.255857501639218299e+01
8.360000000000000000e+02	5.972145419319038240e+01
8.370000000000000000e+02	5.699707481712036383e+01
8.380000000000000000e+02	5.438178117950914015e+01
8.390000000000000000e+02	5.187199550737877018e+01
8.400000000000000000e+02	4.946421829268469850e+01
8.410000000000000000e+02	4.715502849963932164e+01
8.420000000000000000e+02	4.494108365540719063e+01
8.430000000000000000e+02	4.281911982943560702e+01
8.440000000000000000e+02	4.078595150665398705e+01
8.450000000000000000e+02	3.883847135973019249e+01
8.460000000000000000e+02	3.697364992552307683e+01
8.470000000000000000e+02	3.518853519080836634e+01
8.480000000000000000e+02	3.348025209228678278e+01
8.490000000000000000e+02	3.184600193580738647e+01
8.500000000000000000e+02	3.028306173965574999e+01
8.510000000000000000e+02	2.878878350666569119e+01
8.520000000000000000e+02	2.736059342981896947e+01
8.530000000000000000e+02	2.599599103589448035e+01
8.540000000000000000e+02	2.469254827162304977e+01
8.550000000000000000e+02	2.344790853669277197e+01
8.560000000000000000e+02	2.225978566783473411e+01
8.570000000000000000e+02	2.112596287810157847e+01
8.580000000000000000e+02	2.004429165532901536e+01
8.590000000000000000e+02	1.901269062364718465e+01
8.600000000000000000e+02	1.802914437178247198e+01
8.610000000000000000e+02	1.709170225176281122e+01
8.620000000000000000e+02	1.619847715151014711e+01
8.630000000000000000e+02	1.534764424467411459e+01
8.640000000000000000e+02	1.453743972093004011e+01
8.650000000000000000e+02	1.376615949983373888e+01
8.660000000000000000e+02	1.303215793119494670e+01
8.670000000000000000e+02	1.233384648480068080e+01
8.680000000000000000e+02	1.166969243219059216e+01
8.690000000000000000e+02	1.103821752305763759e+01
8.700000000000000000e+02	1.043799665872008298e+01
8.710000000000000000e+02	9.867656564984940815e+00
8.720000000000000000e+02	9.325874466599367807e+00
8.730000000000000000e+02	8.811376765363688079e+00
8.740000000000000000e+02	8.322937723860293957e+00
8.750000000000000000e+02	7.859378156634762469e+00
8.760000000000000000e+02	7.419564130550259762e+00
8.770000000000000000e+02	7.002405675923877304e+00
8.780000000000000000e+02	6.606855509943456717e+00
8.790000000000000000e+02	6.231907773756756974e+00
8.800000000000000000e+02	5.876596784520527805e+00
8.810000000000000000e+02	5.539995803596265311e+00
8.820000000000000000e+02	5.221215821981497029e+00
8.830000000000000000e+02	4.919404363970777183e+00
8.840000000000000000e+02	4.633744309949232587e+00
8.850000000000000000e+02	4.363452739133259151e+00
8.860000000000000000e+02	4.107779792988231371e+00
8.870000000000000000e+02	3.866007559971521790e+00
8.880000000000000000e+02	3.637448982170847334e+00
8.890000000000000000e+02	3.421446784333315172e+00
8.900000000000000000e+02	3.217372425708794115e+00
8.910000000000000000e+02	3.024625075063009483e+00
8.920000000000000000e+02	2.842630609150830878e+00
8.930000000000000000e+02	2.670840634878419273e+00
8.940000000000000000e+02	2.508731535324280060e+00
8.950000000000000000e+02	2.355803539733902774e+00
8.960000000000000000e+02	2.211579817550240357e+00
8.970000000000000000e+02	2.075605596493043770e+00
8.980000000000000000e+02	1.947447304653607159e+00
8.990000000000000000e+02	1.826691736528099685e+00
9.000000000000000000e+02	1.712945242872004892e+00
9.010000000000000000e+02	1.605832944220271230e+00
9.020000000000000000e+02	1.504997967882616638e+00
9.030000000000000000e+02	1.410100708190785923e+00
9.040000000000000000e+02	1.320818109744485991e+00
9.050000000000000000e+02	1.236842973375028798e+00
9.060000000000000000e+02	1.157883284520406786e+00
9.070000000000000000e+02	1.083661563682452700e+00
9.080000000000000000e+02	1.013914238615846175e+00
9.090000000000000000e+02	9.483910378799184082e-01
9.100000000000000000e+02	8.868544053673973471e-01
9.110000000000000000e+02	8.290789354093459629e-01
9.120000000000000000e+02	7.748508280424620809e-01
9.130000000000000000e+02	7.239673640135811938e-01
9.140000000000000000e+02	6.762363990865454255e-01
9.150000000000000000e+02	6.314758772084804184e-01
9.160000000000000000e+02	5.895133620859275281e-01
9.170000000000000000e+02	5.501855867160202473e-01
9.180000000000000000e+02	5.133380204140355341e-01
9.190000000000000000e+02	4.788244528760112195e-01
9.200000000000000000e+02	4.465065948136093810e-01
9.210000000000000000e+02	4.162536946980867625e-01
9.220000000000000000e+02	3.879421711508390103e-01
9.230000000000000000e+02	3.614552605196167945e-01
9.240000000000000000e+02	3.366826791819915732e-01
9.250000000000000000e+02	3.135203001209679319e-01
9.260000000000000000e+02	2.918698433217009613e-01
9.270000000000000000e+02	2.716385795430475980e-01
9.280000000000000000e+02	2.527390470230732045e-01
9.290000000000000000e+02	2.350887806836257643e-01
9.300000000000000000e+02	2.186100534055734623e-01
9.310000000000000000e+02	2.032296289533037925e-01
9.320000000000000000e+02	1.888785261344615718e-01
9.330000000000000000e+02	1.754917937886843193e-01
9.340000000000000000e+02	1.630082962072076647e-01
9.350000000000000000e+02	1.513705085935954098e-01
9.360000000000000000e+02	1.405243221844928725e-01
9.370000000000000000e+02	1.304188586581574438e-01
9.380000000000000000e+02	1.210062934675313340e-01
9.390000000000000000e+02	1.122416877437922567e-01
9.400000000000000000e+02	1.040828284255711500e-01
9.410000000000000000e+02	9.649007627838224188e-02
9.420000000000000000e+02	8.942622147818664324e-02
9.430000000000000000e+02	8.285634644243482227e-02
9.440000000000000000e+02	7.674769560133140600e-02
9.450000000000000000e+02	7.106955181145950540e-02
9.460000000000000000e+02	6.579311912323235201e-02
9.470000000000000000e+02	6.089141162291649562e-02
9.480000000000000000e+02	5.633914807915969825e-02
9.490000000000000000e+02	5.211265213304729776e-02
9.500000000000000000e+02	4.818975777968732832e-02
9.510000000000000000e+02	4.454971989817710365e-02
9.520000000000000000e+02	4.117312959551131663e-02
9.530000000000000000e+02	3.804183413855839746e-02
9.540000000000000000e+02	3.513886125662966931e-02
9.550000000000000000e+02	3.244834760540585977e-02
9.560000000000000000e+02	2.995547119104316827e-02
9.570000000000000000e+02	2.764638756116257270e-02
9.580000000000000000e+02	2.550816957712012320e-02
9.590000000000000000e+02	2.352875058945964881e-02
9.600000000000000000e+02	2.169687084575837310e-02
9.610000000000000000e+02	2.000202696718933471e-02
9.620000000000000000e+02	1.843442433703934916e-02
9.630000000000000000e+02	1.698493225113418062e-02
9.640000000000000000e+02	1.564504168663761671e-02
9.650000000000000000e+02	1.440682555200359372e-02
9.660000000000000000e+02	1.326290128697253483e-02
9.670000000000000000e+02	1.220639568741759863e-02
9.680000000000000000e+02	1.123091183556092568e-02
9.690000000000000000e+02	1.033049802160001043e-02
9.700000000000000000e+02	9.499618548109729083e-03
9.710000000000000000e+02	8.733126313719937958e-03
9.720000000000000000e+02	8.026237077514571452e-03
9.730000000000000000e+02	7.374505310358913865e-03
9.740000000000000000e+02	6.773801543940580379e-03
9.750000000000000000e+02	6.220291132710737553e-03
9.760000000000000000e+02	5.710414348137776881e-03
9.770000000000000000e+02	5.240867728742226901e-03
9.780000000000000000e+02	4.808586613270329595e-03
9.790000000000000000e+02	4.410728788091428099e-03
9.800000000000000000e+02	4.044659183473502811e-03
9.810000000000000000e+02	3.707935556806749456e-03
9.820000000000000000e+02	3.398295104112124699e-03
9.830000000000000000e+02	3.113641944293429800e-03
9.840000000000000000e+02	2.852035423573586956e-03
9.850000000000000000e+02	2.611679190401551727e-03
9.860000000000000000e+02	2.390910993831358352e-03
9.870000000000000000e+02	2.188193160962595418e-03
9.880000000000000000e+02	2.002103711497333575e-03
9.890000000000000000e+02	1.831328069815874125e-03
9.900000000000000000e+02	1.674651337207693283e-03
9.910000000000000000e+02	1.530951089018105400e-03
9.920000000000000000e+02	1.399190663490309594e-03
9.930000000000000000e+02	1.278412911000245547e-03
9.940000000000000000e+02	1.167734374202471009e-03
9.950000000000000000e+02	1.066339871332709459e-03
9.960000000000000000e+02	9.734774565508445918e-04
9.970000000000000000e+02	8.884537327607508255e-04
9.980000000000000000e+02	8.106294938139310376e-04
9.990000000000000000e+02	7.394156743962687498e-04
1.000000000000000000e+03	6.742695872145086991e-04
