4.410000000000000000e+02	1.128602637816219456e+01
4.420000000000000000e+02	1.194477824021903523e+01
4.430000000000000000e+02	1.263875590277377725e+01
4.440000000000000000e+02	1.336964161471751744e+01
4.450000000000000000e+02	1.413918607412065143e+01
4.460000000000000000e+02	1.494921054888991208e+01
4.470000000000000000e+02	1.580160902719348570e+01
4.480000000000000000e+02	1.669835039598234161e+01
4.490000000000000000e+02	1.764148064578962760e+01
4.500000000000000000e+02	1.863312509983610354e+01
4.510000000000000000e+02	1.967549066531466906e+01
4.520000000000000000e+02	2.077086810456456689e+01
4.530000000000000000e+02	2.192163432368076315e+01
4.540000000000000000e+02	2.313025467593495677e+01
4.550000000000000000e+02	2.439928527720990914e+01
4.560000000000000000e+02	2.573137533047292180e+01
4.570000000000000000e+02	2.712926945613171270e+01
4.580000000000000000e+02	2.859581002493290214e+01
4.590000000000000000e+02	3.013393948987527082e+01
4.600000000000000000e+02	3.174670271341926764e+01
4.610000000000000000e+02	3.343724928608283165e+01
4.620000000000000000e+02	3.520883583231648117e+01
4.630000000000000000e+02	3.706482829935562506e+01
4.640000000000000000e+02	3.900870422454845965e+01
4.650000000000000000e+02	4.104405497645787904e+01
4.660000000000000000e+02	4.317458796483722949e+01
4.670000000000000000e+02	4.540412881437653425e+01
4.680000000000000000e+02	4.773662349691772278e+01
4.690000000000000000e+02	5.017614041663609470e+01
4.700000000000000000e+02	5.272687244248633931e+01
4.710000000000000000e+02	5.539313888201663616e+01
4.720000000000000000e+02	5.817938739045548147e+01
4.730000000000000000e+02	6.109019580878832301e+01
4.740000000000000000e+02	6.413027392434990759e+01
4.750000000000000000e+02	6.730446514727348983e+01
4.760000000000000000e+02	7.061774809596674629e+01
4.770000000000000000e+02	7.407523808464826232e+01
4.780000000000000000e+02	7.768218850611832238e+01
4.790000000000000000e+02	8.144399210482767160e+01
4.800000000000000000e+02	8.536618214796914117e+01
4.810000000000000000e+02	8.945443357645480376e+01
4.820000000000000000e+02	9.371456461688740092e+01
4.830000000000000000e+02	9.815254132533729603e+01
4.840000000000000000e+02	1.027744967068837525e+02
4.850000000000000000e+02	1.075868151200490672e+02
4.860000000000000000e+02	1.125964860372902905e+02
4.870000000000000000e+02	1.178124848211906794e+02
4.880000000000000000e+02	1.232507695183088288e+02
4.890000000000000000e+02	1.289510109235071695e+02
4.900000000000000000e+02	1.350283115164712910e+02
4.910000000000000000e+02	1.418204565058213689e+02
4.920000000000000000e+02	1.502727857256653579e+02
4.930000000000000000e+02	1.628576623672400387e+02
4.940000000000000000e+02	1.855701368154521447e+02
4.950000000000000000e+02	2.318281324313659297e+02
4.960000000000000000e+02	3.292388736489399435e+02
4.970000000000000000e+02	5.297602955103759541e+02
4.980000000000000000e+02	9.222221107043666279e+02
4.990000000000000000e+02	1.643120914861228130e+03
5.000000000000000000e+02	2.877609931506675821e+03
5.010000000000000000e+02	4.839776083399419804e+03
5.020000000000000000e+02	7.723153791595726943e+03
5.030000000000000000e+02	1.162210020089753925e+04
5.040000000000000000e+02	1.644167517567531104e+04
5.050000000000000000e+02	2.183133308229518298e+04
5.060000000000000000e+02	2.718427926342522551e+04
5.070000000000000000e+02	3.172945291911564345e+04
5.080000000000000000e+02	3.470687076951393101e+04
5.090000000000000000e+02	3.557450209569712752e+04
5.100000000000000000e+02	3.416989633353389945e+04
5.110000000000000000e+02	3.076048690506838466e+04
5.120000000000000000e+02	2.596121888972285524e+04
5.130000000000000000e+02	2.055428551579418126e+04
5.140000000000000000e+02	1.528339609578682757e+04
5.150000000000000000e+02	1.069600486530202761e+04
5.160000000000000000e+02	7.075353436664527180e+03
5.170000000000000000e+02	4.461095084748302725e+03
5.180000000000000000e+02	2.725550651711628234e+03
5.190000000000000000e+02	1.663662449233802818e+03
5.200000000000000000e+02	1.065223527430993045e+03
5.210000000000000000e+02	7.564393855497048662e+02
5.220000000000000000e+02	6.134235195342496354e+02
5.230000000000000000e+02	5.577880991877060524e+02
5.240000000000000000e+02	5.448168815030403493e+02
5.250000000000000000e+02	5.512960875679561923e+02
5.260000000000000000e+02	5.661919840616102420e+02
5.270000000000000000e+02	5.846838906483566234e+02
5.280000000000000000e+02	6.048318253897467685e+02
5.290000000000000000e+02	6.259173740846255214e+02
5.300000000000000000e+02	6.476979411972261005e+02
5.310000000000000000e+02	6.701016840185988030e+02
5.320000000000000000e+02	6.931133012757596816e+02
5.330000000000000000e+02	7.167347382113312051e+02
5.340000000000000000e+02	7.409727195221242937e+02
5.350000000000000000e+02	7.658350877402939432e+02
5.360000000000000000e+02	7.913297997084067674e+02
5.370000000000000000e+02	8.174646629271392158e+02
5.380000000000000000e+02	8.442472621126091781e+02
5.390000000000000000e+02	8.716849309091142004e+02
5.400000000000000000e+02	8.997847334306975426e+02
5.410000000000000000e+02	9.285534476861341773e+02
5.420000000000000000e+02	9.579975492446612861e+02
5.430000000000000000e+02	9.881231948411195845e+02
5.440000000000000000e+02	1.018936205884002220e+03
5.450000000000000000e+02	1.050442051878940902e+03
5.460000000000000000e+02	1.082645833789180188e+03
5.470000000000000000e+02	1.115552267356710445e+03
5.480000000000000000e+02	1.149165666408723382e+03
5.490000000000000000e+02	1.183489926174876018e+03
5.500000000000000000e+02	1.218528506641607692e+03
5.510000000000000000e+02	1.254284415970472992e+03
5.520000000000000000e+02	1.290760194008163580e+03
5.530000000000000000e+02	1.327957895916531925e+03
5.540000000000000000e+02	1.365879075951555478e+03
5.550000000000000000e+02	1.404524771420757816e+03
5.560000000000000000e+02	1.443895486849126655e+03
5.570000000000000000e+02	1.483991178384051636e+03
5.580000000000000000e+02	1.524811238470261060e+03
5.590000000000000000e+02	1.566354480826079907e+03
5.600000000000000000e+02	1.608619125752709124e+03
5.610000000000000000e+02	1.651602785808449426e+03
5.620000000000000000e+02	1.695302451880050057e+03
5.630000000000000000e+02	1.739714479683488889e+03
5.640000000000000000e+02	1.784834576726590512e+03
5.650000000000000000e+02	1.830657789765906728e+03
5.660000000000000000e+02	1.877178492790273140e+03
5.670000000000000000e+02	1.924390375563294583e+03
5.680000000000000000e+02	1.972286432756889553e+03
5.690000000000000000e+02	2.020858953707739374e+03
5.700000000000000000e+02	2.070099512828177012e+03
5.710000000000000000e+02	2.119998960702665499e+03
5.720000000000000000e+02	2.170547415900531178e+03
5.730000000000000000e+02	2.221734257535086272e+03
5.740000000000000000e+02	2.273548118598657766e+03
5.750000000000000000e+02	2.325976880102333780e+03
5.760000000000000000e+02	2.379007666048476949e+03
5.770000000000000000e+02	2.432626839263211878e+03
5.780000000000000000e+02	2.486819998115156523e+03
5.790000000000000000e+02	2.541571974145690547e+03
5.800000000000000000e+02	2.596866830634956841e+03
5.810000000000000000e+02	2.652687862126670097e+03
5.820000000000000000e+02	2.709017594933566670e+03
5.830000000000000000e+02	2.765837788644049397e+03
5.840000000000000000e+02	2.823129438649217263e+03
5.850000000000000000e+02	2.880872779708027338e+03
5.860000000000000000e+02	2.939047290566868924e+03
5.870000000000000000e+02	2.997631699648216454e+03
5.880000000000000000e+02	3.056603991821459203e+03
5.890000000000000000e+02	3.115941416267273326e+03
5.900000000000000000e+02	3.175620495445188681e+03
5.910000000000000000e+02	3.235617035172182113e+03
5.920000000000000000e+02	3.295906135818301209e+03
5.930000000000000000e+02	3.356462204623409889e+03
5.940000000000000000e+02	3.417258969137207259e+03
5.950000000000000000e+02	3.478269491782687965e+03
5.960000000000000000e+02	3.539466185541204140e+03
5.970000000000000000e+02	3.600820830755198585e+03
5.980000000000000000e+02	3.662304593042650595e+03
5.990000000000000000e+02	3.723888042315111761e+03
6.000000000000000000e+02	3.785541172889115842e+03
6.010000000000000000e+02	3.847233424678596748e+03
6.020000000000000000e+02	3.908933705453769107e+03
6.030000000000000000e+02	3.970610414149811277e+03
6.040000000000000000e+02	4.032231465206466055e+03
6.050000000000000000e+02	4.093764313917575691e+03
6.060000000000000000e+02	4.155175982767364076e+03
6.070000000000000000e+02	4.216433088728182156e+03
6.080000000000000000e+02	4.277501871492282589e+03
6.090000000000000000e+02	4.338348222608117794e+03
6.100000000000000000e+02	4.398937715489573748e+03
6.110000000000000000e+02	4.459235636264525056e+03
6.120000000000000000e+02	4.519207015427124134e+03
6.130000000000000000e+02	4.578816660256247815e+03
6.140000000000000000e+02	4.638029187960671152e+03
6.150000000000000000e+02	4.696809059509685540e+03
6.160000000000000000e+02	4.755120614106064750e+03
6.170000000000000000e+02	4.812928104256620827e+03
6.180000000000000000e+02	4.870195731393888309e+03
6.190000000000000000e+02	4.926887682000961831e+03
6.200000000000000000e+02	4.982968164189948766e+03
6.210000000000000000e+02	5.038401444683156114e+03
6.220000000000000000e+02	5.093151886144774835e+03
6.230000000000000000e+02	5.147183984809578760e+03
6.240000000000000000e+02	5.200462408354059335e+03
6.250000000000000000e+02	5.252952033954368744e+03
6.260000000000000000e+02	5.304617986474477220e+03
6.270000000000000000e+02	5.355425676727178143e+03
6.280000000000000000e+02	5.405340839749824227e+03
6.290000000000000000e+02	5.454329573036074180e+03
6.300000000000000000e+02	5.502358374664450821e+03
6.310000000000000000e+02	5.549394181264121471e+03
6.320000000000000000e+02	5.595404405758082248e+03
6.330000000000000000e+02	5.640356974823751443e+03
6.340000000000000000e+02	5.684220366011010810e+03
6.350000000000000000e+02	5.726963644457793635e+03
6.360000000000000000e+02	5.768556499143608562e+03
6.370000000000000000e+02	5.808969278621679223e+03
6.380000000000000000e+02	5.848173026170921730e+03
6.390000000000000000e+02	5.886139514309540573e+03
6.400000000000000000e+02	5.922841278612785572e+03
6.410000000000000000e+02	5.958251650778242038e+03
6.420000000000000000e+02	5.992344790883000314e+03
6.430000000000000000e+02	6.025095718778171431e+03
6.440000000000000000e+02	6.056480344567385146e+03
6.450000000000000000e+02	6.086475498117264578e+03
6.460000000000000000e+02	6.115058957549305887e+03
6.470000000000000000e+02	6.142209476664143040e+03
6.480000000000000000e+02	6.167906811250840292e+03
6.490000000000000000e+02	6.192131744235621227e+03
6.500000000000000000e+02	6.214866109626313118e+03
6.510000000000000000e+02	6.236092815210752633e+03
6.520000000000000000e+02	6.255795863969451602e+03
6.530000000000000000e+02	6.273960374164985296e+03
6.540000000000000000e+02	6.290572598072771143e+03
6.550000000000000000e+02	6.305619939320265075e+03
6.560000000000000000e+02	6.319090968803935539e+03
6.570000000000000000e+02	6.330975439155875392e+03
6.580000000000000000e+02	6.341264297734417596e+03
6.590000000000000000e+02	6.349949698115698993e+03
6.600000000000000000e+02	6.357025010065748575e+03
6.610000000000000000e+02	6.362484827975364169e+03
6.620000000000000000e+02	6.366324977742755436e+03
6.630000000000000000e+02	6.368542522091678620e+03
6.640000000000000000e+02	6.369135764315591587e+03
6.650000000000000000e+02	6.368104250441128897e+03
6.660000000000000000e+02	6.365448769807053395e+03
6.670000000000000000e+02	6.361171354057641111e+03
6.680000000000000000e+02	6.355275274552297560e+03
6.690000000000000000e+02	6.347765038196031128e+03
6.700000000000000000e+02	6.338646381698218647e+03
6.710000000000000000e+02	6.327926264269907733e+03
6.720000000000000000e+02	6.315612858772665277e+03
6.730000000000000000e+02	6.301715541334730915e+03
6.740000000000000000e+02	6.286244879452942769e+03
6.750000000000000000e+02	6.269212618601580289e+03
6.760000000000000000e+02	6.250631667371861113e+03
6.770000000000000000e+02	6.230516081168432720e+03
6.780000000000000000e+02	6.208881044491666216e+03
6.790000000000000000e+02	6.185742851837023409e+03
6.800000000000000000e+02	6.161118887245128462e+03
6.810000000000000000e+02	6.135027602538468273e+03
6.820000000000000000e+02	6.107488494282853935e+03
6.830000000000000000e+02	6.078522079513913013e+03
6.840000000000000000e+02	6.048149870270894098e+03
6.850000000000000000e+02	6.016394346982035131e+03
6.860000000000000000e+02	5.983278930747557752e+03
6.870000000000000000e+02	5.948827954568118002e+03
6.880000000000000000e+02	5.913066633568148973e+03
6.890000000000000000e+02	5.876021034265073467e+03
6.900000000000000000e+02	5.837718042936780876e+03
6.910000000000000000e+02	5.798185333141022966e+03
6.920000000000000000e+02	5.757451332441622981e+03
6.930000000000000000e+02	5.715545188397386482e+03
6.940000000000000000e+02	5.672496733870604658e+03
6.950000000000000000e+02	5.628336451712810231e+03
6.960000000000000000e+02	5.583095438886176453e+03
6.970000000000000000e+02	5.536805370079483509e+03
6.980000000000000000e+02	5.489498460878083279e+03
6.990000000000000000e+02	5.441207430547541662e+03
7.000000000000000000e+02	5.391965464490905106e+03
7.010000000000000000e+02	5.341806176439567935e+03
7.020000000000000000e+02	5.290763570437689850e+03
7.030000000000000000e+02	5.238872002679949219e+03
7.040000000000000000e+02	5.186166143262117657e+03
7.050000000000000000e+02	5.132680937903537597e+03
7.060000000000000000e+02	5.078451569700070650e+03
7.070000000000000000e+02	5.023513420965449768e+03
7.080000000000000000e+02	4.967902035218193305e+03
7.090000000000000000e+02	4.911653079370433261e+03
7.100000000000000000e+02	4.854802306174007754e+03
7.110000000000000000e+02	4.797385516978109081e+03
7.120000000000000000e+02	4.739438524851652801e+03
7.130000000000000000e+02	4.680997118122228130e+03
7.140000000000000000e+02	4.622097024382187556e+03
7.150000000000000000e+02	4.562773875010963820e+03
7.160000000000000000e+02	4.503063170261216328e+03
7.170000000000000000e+02	4.443000244954807386e+03
7.180000000000000000e+02	4.382620234832923416e+03
7.190000000000000000e+02	4.321958043602946418e+03
7.200000000000000000e+02	4.261048310722887436e+03
7.210000000000000000e+02	4.199925379962294755e+03
7.220000000000000000e+02	4.138623268776686018e+03
7.230000000000000000e+02	4.077175638530581637e+03
7.240000000000000000e+02	4.015615765602178726e+03
7.250000000000000000e+02	3.953976513400728891e+03
7.260000000000000000e+02	3.892290305325541794e+03
7.270000000000000000e+02	3.830589098693489177e+03
7.280000000000000000e+02	3.768904359659718466e+03
7.290000000000000000e+02	3.707267039154173290e+03
7.300000000000000000e+02	3.645707549854348144e+03
7.310000000000000000e+02	3.584255744212532591e+03
7.320000000000000000e+02	3.522940893553679871e+03
7.330000000000000000e+02	3.461791668257811580e+03
7.340000000000000000e+02	3.400836119038773631e+03
7.350000000000000000e+02	3.340101659328977348e+03
7.360000000000000000e+02	3.279615048777671291e+03
7.370000000000000000e+02	3.219402377868143049e+03
7.380000000000000000e+02	3.159489053657226123e+03
7.390000000000000000e+02	3.099899786638396108e+03
7.400000000000000000e+02	3.040658578727754502e+03
7.410000000000000000e+02	2.981788712370225312e+03
7.420000000000000000e+02	2.923312740761336045e+03
7.430000000000000000e+02	2.865252479178104295e+03
7.440000000000000000e+02	2.807628997410683496e+03
7.450000000000000000e+02	2.750462613284656072e+03
7.460000000000000000e+02	2.693772887262132826e+03
7.470000000000000000e+02	2.637578618108137562e+03
7.480000000000000000e+02	2.581897839607151582e+03
7.490000000000000000e+02	2.526747818313161133e+03
7.500000000000000000e+02	2.472145052315041539e+03
7.510000000000000000e+02	2.418105270997727530e+03
7.520000000000000000e+02	2.364643435778260482e+03
7.530000000000000000e+02	2.311773741794526813e+03
7.540000000000000000e+02	2.259509620523325339e+03
7.550000000000000000e+02	2.207863743303237243e+03
7.560000000000000000e+02	2.156848025736761883e+03
7.570000000000000000e+02	2.106473632945160716e+03
7.580000000000000000e+02	2.056750985648598089e+03
7.590000000000000000e+02	2.007689767043281108e+03
7.600000000000000000e+02	1.959298930446629129e+03
7.610000000000000000e+02	1.911586707680743302e+03
7.620000000000000000e+02	1.864560618163917525e+03
7.630000000000000000e+02	1.818227478679379828e+03
7.640000000000000000e+02	1.772593413789999431e+03
7.650000000000000000e+02	1.727663866867336083e+03
7.660000000000000000e+02	1.683443611703102306e+03
7.670000000000000000e+02	1.639936764670873799e+03
7.680000000000000000e+02	1.597146797405731604e+03
7.690000000000000000e+02	1.555076549969425287e+03
7.700000000000000000e+02	1.513728244468627281e+03
7.710000000000000000e+02	1.473103499093891742e+03
7.720000000000000000e+02	1.433203342547037437e+03
7.730000000000000000e+02	1.394028228824840198e+03
7.740000000000000000e+02	1.355578052327169871e+03
7.750000000000000000e+02	1.317852163257960456e+03
7.760000000000000000e+02	1.280849383287781620e+03
7.770000000000000000e+02	1.244568021447154706e+03
7.780000000000000000e+02	1.209005890220209494e+03
7.790000000000000000e+02	1.174160321808783237e+03
7.800000000000000000e+02	1.140028184537591414e+03
7.810000000000000000e+02	1.106605899371706300e+03
7.820000000000000000e+02	1.073889456518186535e+03
7.830000000000000000e+02	1.041874432084384125e+03
7.840000000000000000e+02	1.010556004766149158e+03
7.850000000000000000e+02	9.799289725398917881e+02
7.860000000000000000e+02	9.499877693332200579e+02
7.870000000000000000e+02	9.207264816496825688e+02
7.880000000000000000e+02	8.921388651239439014e+02
7.890000000000000000e+02	8.642183609845772025e+02
7.900000000000000000e+02	8.369581124025181680e+02
7.910000000000000000e+02	8.103509807040995838e+02
7.920000000000000000e+02	7.843895614284866724e+02
7.930000000000000000e+02	7.590662002102368433e+02
7.940000000000000000e+02	7.343730084686241071e+02
7.950000000000000000e+02	7.103018788862997326e+02
7.960000000000000000e+02	6.868445006607867072e+02
7.970000000000000000e+02	6.639923745132349495e+02
7.980000000000000000e+02	6.417368274398096446e+02
7.990000000000000000e+02	6.200690271920092300e+02
8.000000000000000000e+02	5.989799964731435011e+02
8.010000000000000000e+02	5.784606268391238473e+02
8.020000000000000000e+02	5.585016922926413372e+02
8.030000000000000000e+02	5.390938625607083168e+02
8.040000000000000000e+02	5.202277160464423105e+02
8.050000000000000000e+02	5.018937524468573201e+02
8.060000000000000000e+02	4.840824050292906691e+02
8.070000000000000000e+02	4.667840525599605712e+02
8.080000000000000000e+02	4.499890308789779851e+02
8.090000000000000000e+02	4.336876441169627014e+02
8.100000000000000000e+02	4.178701755492128882e+02
8.110000000000000000e+02	4.025268980841576081e+02
8.120000000000000000e+02	3.876480843835838641e+02
8.130000000000000000e+02	3.732240166128608507e+02
8.140000000000000000e+02	3.592449958201008826e+02
8.150000000000000000e+02	3.457013509438879169e+02
8.160000000000000000e+02	3.325834474498636268e+02
8.170000000000000000e+02	3.198816955971036009e+02
8.180000000000000000e+02	3.075865583358310005e+02
8.190000000000000000e+02	2.956885588385977144e+02
8.200000000000000000e+02	2.841782876676273872e+02
8.210000000000000000e+02	2.730464095815474934e+02
8.220000000000000000e+02	2.622836699852442734e+02
8.230000000000000000e+02	2.518809010270546480e+02
8.240000000000000000e+02	2.418290273479604195e+02
8.250000000000000000e+02	2.321190714878778465e+02
8.260000000000000000e+02	2.227421589545334371e+02
8.270000000000000000e+02	2.136895229607871727e+02
8.280000000000000000e+02	2.049525088366137027e+02
8.290000000000000000e+02	1.965225781222656281e+02
8.300000000000000000e+02	1.883913123494415061e+02
8.310000000000000000e+02	1.805504165175437379e+02
8.320000000000000000e+02	1.729917222723598229e+02
8.330000000000000000e+02	1.657071907947115506e+02
8.340000000000000000e+02	1.586889154068167329e+02
8.350000000000000000e+02	1.519291239042739790e+02
8.360000000000000000e+02	1.454201806217307364e+02
8.370000000000000000e+02	1.391545882404183487e+02
8.380000000000000000e+02	1.331249893458422946e+02
8.390000000000000000e+02	1.273241677439983874e+02
8.400000000000000000e+02	1.217450495445462195e+02
8.410000000000000000e+02	1.163807040194160862e+02
8.420000000000000000e+02	1.112243442453474813e+02
8.430000000000000000e+02	1.062693275388650420e+02
8.440000000000000000e+02	1.015091556921851463e+02
8.450000000000000000e+02	9.693747501851854054e+01
8.460000000000000000e+02	9.254807621519316285e+01
8.470000000000000000e+02	8.833489405295911467e+01
8.480000000000000000e+02	8.429200689976980243e+01
8.490000000000000000e+02	8.041363608724373080e+01
8.500000000000000000e+02	7.669414512791723837e+01
8.510000000000000000e+02	7.312803879128357210e+01
8.520000000000000000e+02	6.970996204649867423e+01
8.530000000000000000e+02	6.643469887949993335e+01
8.540000000000000000e+02	6.329717099214216347e+01
8.550000000000000000e+02	6.029243639081215633e+01
8.560000000000000000e+02	5.741568787181930134e+01
8.570000000000000000e+02	5.466225141070132310e+01
8.580000000000000000e+02	5.202758446241094958e+01
8.590000000000000000e+02	4.950727417917293849e+01
8.600000000000000000e+02	4.709703555262229457e+01
8.610000000000000000e+02	4.479270948664468932e+01
8.620000000000000000e+02	4.259026080715419482e+01
8.630000000000000000e+02	4.048577621484829336e+01
8.640000000000000000e+02	3.847546218678498775e+01
8.650000000000000000e+02	3.655564283243096213e+01
8.660000000000000000e+02	3.472275770962753683e+01
8.670000000000000000e+02	3.297335960572437585e+01
8.680000000000000000e+02	3.130411228892848996e+01
8.690000000000000000e+02	2.971178823471484165e+01
8.700000000000000000e+02	2.819326633194732779e+01
8.710000000000000000e+02	2.674552957315605539e+01
8.720000000000000000e+02	2.536566273322208787e+01
8.730000000000000000e+02	2.405085004052149955e+01
8.740000000000000000e+02	2.279837284438841749e+01
8.750000000000000000e+02	2.160560728256275809e+01
8.760000000000000000e+02	2.047002195209978836e+01
8.770000000000000000e+02	1.938917558703211697e+01
8.780000000000000000e+02	1.836071474589025243e+01
8.790000000000000000e+02	1.738237151200911867e+01
8.800000000000000000e+02	1.645196120937066198e+01
8.810000000000000000e+02	1.556738013656040565e+01
8.820000000000000000e+02	1.472660332124731752e+01
8.830000000000000000e+02	1.392768229743219521e+01
8.840000000000000000e+02	1.316874290754950572e+01
8.850000000000000000e+02	1.244798313135232704e+01
8.860000000000000000e+02	1.176367094335898855e+01
8.870000000000000000e+02	1.111414220049389812e+01
8.880000000000000000e+02	1.049779856141316792e+01
8.890000000000000000e+02	9.913105438869203923e+00
8.900000000000000000e+02	9.358589986336481203e+00
8.910000000000000000e+02	8.832839119993188604e+00
8.920000000000000000e+02	8.334497577032045967e+00
8.930000000000000000e+02	7.862266011155369938e+00
8.940000000000000000e+02	7.414899125997858498e+00
8.950000000000000000e+02	6.991203847112202219e+00
8.960000000000000000e+02	6.590037533050379537e+00
8.970000000000000000e+02	6.210306225975172012e+00
8.980000000000000000e+02	5.850962942143175916e+00
8.990000000000000000e+02	5.511006002512044866e+00
9.000000000000000000e+02	5.189477403640387010e+00
9.010000000000000000e+02	4.885461228969368186e+00
9.020000000000000000e+02	4.598082100499921054e+00
9.030000000000000000e+02	4.326503670808485857e+00
9.040000000000000000e+02	4.069927155277913933e+00
9.050000000000000000e+02	3.827589904357461936e+00
9.060000000000000000e+02	3.598764015607698763e+00
9.070000000000000000e+02	3.382754985231528178e+00
9.080000000000000000e+02	3.178900398741860034e+00
9.090000000000000000e+02	2.986568660369835371e+00
9.100000000000000000e+02	2.805157760773739906e+00
9.110000000000000000e+02	2.634094082569315542e+00
9.120000000000000000e+02	2.472831243165326764e+00
9.130000000000000000e+02	2.320848974355146144e+00
9.140000000000000000e+02	2.177652038084936681e+00
9.150000000000000000e+02	2.042769177791690982e+00
9.160000000000000000e+02	1.915752104680211731e+00
9.170000000000000000e+02	1.796174518286485444e+00
9.180000000000000000e+02	1.683631160655862047e+00
9.190000000000000000e+02	1.577736903448117012e+00
9.200000000000000000e+02	1.478125867267296334e+00
9.210000000000000000e+02	1.384450572502502697e+00
9.220000000000000000e+02	1.296381120956058730e+00
9.230000000000000000e+02	1.213604407527912210e+00
9.240000000000000000e+02	1.135823361219385541e+00
9.250000000000000000e+02	1.062756214715580683e+00
9.260000000000000000e+02	9.941358018034680555e-01
9.270000000000000000e+02	9.297088818822222267e-01
9.280000000000000000e+02	8.692354908232168276e-01
9.290000000000000000e+02	8.124883174394962326e-01
9.300000000000000000e+02	7.592521048281546392e-01
9.310000000000000000e+02	7.093230758539502689e-01
9.320000000000000000e+02	6.625083820484437558e-01
9.330000000000000000e+02	6.186255752060232371e-01
9.340000000000000000e+02	5.775021009661287508e-01
9.350000000000000000e+02	5.389748136799057399e-01
9.360000000000000000e+02	5.028895118691379951e-01
9.370000000000000000e+02	4.691004935957405197e-01
9.380000000000000000e+02	4.374701310711088253e-01
9.390000000000000000e+02	4.078684638462613532e-01
9.400000000000000000e+02	3.801728099358844259e-01
9.410000000000000000e+02	3.542673942419614086e-01
9.420000000000000000e+02	3.300429936557032762e-01
9.430000000000000000e+02	3.073965982298489941e-01
9.440000000000000000e+02	2.862310878270328263e-01
9.450000000000000000e+02	2.664549236638282803e-01
9.460000000000000000e+02	2.479818541841323221e-01
9.470000000000000000e+02	2.307306347097954624e-01
9.480000000000000000e+02	2.146247603307460117e-01
9.490000000000000000e+02	1.995922115112375717e-01
9.500000000000000000e+02	1.855652119033219805e-01
9.510000000000000000e+02	1.724799978730465755e-01
9.520000000000000000e+02	1.602765992593064015e-01
9.530000000000000000e+02	1.488986308995936536e-01
9.540000000000000000e+02	1.382930944711526500e-01
9.550000000000000000e+02	1.284101902101627002e-01
9.560000000000000000e+02	1.192031380855696487e-01
9.570000000000000000e+02	1.106280080180177122e-01
9.580000000000000000e+02	1.026435587479748862e-01
9.590000000000000000e+02	9.521108497061128717e-02
9.600000000000000000e+02	8.829427236822220970e-02
9.610000000000000000e+02	8.185906018400548878e-02
9.620000000000000000e+02	7.587351099377717678e-02
9.630000000000000000e+02	7.030768734473678838e-02
9.640000000000000000e+02	6.513353494265929078e-02
9.650000000000000000e+02	6.032477208088690007e-02
9.660000000000000000e+02	5.585678501622123177e-02
9.670000000000000000e+02	5.170652900825581377e-02
9.680000000000000000e+02	4.785243474984747503e-02
9.690000000000000000e+02	4.427431992729802951e-02
9.700000000000000000e+02	4.095330565938772038e-02
9.710000000000000000e+02	3.787173757469316365e-02
9.720000000000000000e+02	3.501311129660875793e-02
9.730000000000000000e+02	3.236200211518543146e-02
9.740000000000000000e+02	2.990399863430727098e-02
9.750000000000000000e+02	2.762564019183087402e-02
9.760000000000000000e+02	2.551435785913586107e-02
9.770000000000000000e+02	2.355841883506388373e-02
9.780000000000000000e+02	2.174687405747093016e-02
9.790000000000000000e+02	2.006950886358322209e-02
9.800000000000000000e+02	1.851679653803371683e-02
9.810000000000000000e+02	1.707985459487069979e-02
9.820000000000000000e+02	1.575040364697556303e-02
9.830000000000000000e+02	1.452072872320876035e-02
9.840000000000000000e+02	1.338364290022643274e-02
9.850000000000000000e+02	1.233245312227984961e-02
9.860000000000000000e+02	1.136092808843308655e-02
9.870000000000000000e+02	1.046326809251508713e-02
9.880000000000000000e+02	9.634076706767667059e-03
9.890000000000000000e+02	8.868334205566366299e-03
9.900000000000000000e+02	8.161372630783479340e-03
9.910000000000000000e+02	7.508852405336353779e-03
9.920000000000000000e+02	6.906740406228498511e-03
9.930000000000000000e+02	6.351289412948569850e-03
9.940000000000000000e+02	5.839018851453064811e-03
9.950000000000000000e+02	5.366696758125503140e-03
9.960000000000000000e+02	4.931322892086603508e-03
9.970000000000000000e+02	4.530112928031324732e-03
9.980000000000000000e+02	4.160483665396048567e-03
9.990000000000000000e+02	3.820039193119452187e-03
1.000000000000000000e+03	3.506557952557973895e-03
