4.410000000000000000e+02	7.949346831792801644e-16
4.420000000000000000e+02	2.962969067024895774e-15
4.430000000000000000e+02	1.083151858291132982e-14
4.440000000000000000e+02	3.883453779528319293e-14
4.450000000000000000e+02	1.365568505256638886e-13
4.460000000000000000e+02	4.709506525805540032e-13
4.470000000000000000e+02	1.592956344570043372e-12
4.480000000000000000e+02	5.284439191688997702e-12
4.490000000000000000e+02	1.719334965970415724e-11
4.500000000000000000e+02	5.486414884220509659e-11
4.510000000000000000e+02	1.717051638589278048e-10
4.520000000000000000e+02	5.270412730448930319e-10
4.530000000000000000e+02	1.586618290579515996e-09
4.540000000000000000e+02	4.684538865086592003e-09
4.550000000000000000e+02	1.356524981702492343e-08
4.560000000000000000e+02	3.852612289568253888e-08
4.570000000000000000e+02	1.073122683628760956e-07
4.580000000000000000e+02	2.931635717742090210e-07
4.590000000000000000e+02	7.854837292889866684e-07
4.600000000000000000e+02	2.064100990750689148e-06
4.610000000000000000e+02	5.319750340825296536e-06
4.620000000000000000e+02	1.344677443102092494e-05
4.630000000000000000e+02	3.333585113896245645e-05
4.640000000000000000e+02	8.105345584047986263e-05
4.650000000000000000e+02	1.932849701288883836e-04
4.660000000000000000e+02	4.520549118759504192e-04
4.670000000000000000e+02	1.036933392431042822e-03
4.680000000000000000e+02	2.332797751137689109e-03
4.690000000000000000e+02	5.147186155953225803e-03
4.700000000000000000e+02	1.113856446779220265e-02
4.710000000000000000e+02	2.364041684021983905e-02
4.720000000000000000e+02	4.920934642791394142e-02
4.730000000000000000e+02	1.004631112820216360e-01
4.740000000000000000e+02	2.011556384960527244e-01
4.750000000000000000e+02	3.950247956848389475e-01
4.760000000000000000e+02	7.608220022797168580e-01
4.770000000000000000e+02	1.437170617940898953e+00
4.780000000000000000e+02	2.662564613783966028e+00
4.790000000000000000e+02	4.837918430995236996e+00
4.800000000000000000e+02	8.621513001914708596e+00
4.810000000000000000e+02	1.506867246481524703e+01
4.820000000000000000e+02	2.583051461038037644e+01
4.830000000000000000e+02	4.342678552248029433e+01
4.840000000000000000e+02	7.160591010048625549e+01
4.850000000000000000e+02	1.157994812555122763e+02
4.860000000000000000e+02	1.836669096625651321e+02
4.870000000000000000e+02	2.857075936975729178e+02
4.880000000000000000e+02	4.358923113868647192e+02
4.890000000000000000e+02	6.522336448412364689e+02
4.900000000000000000e+02	9.571803417964971459e+02
4.910000000000000000e+02	1.377688504062954962e+03
4.920000000000000000e+02	1.944802512618409537e+03
4.930000000000000000e+02	2.692585202960325660e+03
4.940000000000000000e+02	3.656300234772600106e+03
4.950000000000000000e+02	4.869952557719878314e+03
4.960000000000000000e+02	6.363866107748551258e+03
4.970000000000000000e+02	8.164455987917365746e+03
4.980000000000000000e+02	1.030158142956128722e+04
4.990000000000000000e+02	1.283414668494448597e+04
5.000000000000000000e+02	1.590893030141834242e+04
5.010000000000000000e+02	1.986056147555709686e+04
5.020000000000000000e+02	2.532524935325722618e+04
5.030000000000000000e+02	3.327147412061855721e+04
5.040000000000000000e+02	4.478723019704632316e+04
5.050000000000000000e+02	6.050519914775101643e+04
5.060000000000000000e+02	7.978216114167447085e+04
5.070000000000000000e+02	1.000992515879281418e+05
5.080000000000000000e+02	1.173041114496992959e+05
5.090000000000000000e+02	1.269547267755584908e+05
5.100000000000000000e+02	1.262375059465503000e+05
5.110000000000000000e+02	1.153350377892031684e+05
5.120000000000000000e+02	9.733772263568048947e+04
5.130000000000000000e+02	7.675918419323707349e+04
5.140000000000000000e+02	5.763027169511035027e+04
5.150000000000000000e+02	4.226378894233344909e+04
5.160000000000000000e+02	3.112739754451725094e+04
5.170000000000000000e+02	2.349843759680862422e+04
5.180000000000000000e+02	1.827504745037294560e+04
5.190000000000000000e+02	1.451238406658381609e+04
5.200000000000000000e+02	1.160204726639282671e+04
5.210000000000000000e+02	9.226294288346145549e+03
5.220000000000000000e+02	7.243405551044978893e+03
5.230000000000000000e+02	5.592407440414633129e+03
5.240000000000000000e+02	4.238893004083584856e+03
5.250000000000000000e+02	3.152209472981588988e+03
5.260000000000000000e+02	2.299252791146071559e+03
5.270000000000000000e+02	1.644888258470724622e+03
5.280000000000000000e+02	1.154131895576357465e+03
5.290000000000000000e+02	7.942215530261528329e+02
5.300000000000000000e+02	5.360367666156254245e+02
5.310000000000000000e+02	3.548248861159931948e+02
5.320000000000000000e+02	2.303563183873918661e+02
5.330000000000000000e+02	1.466738683674601305e+02
5.340000000000000000e+02	9.159503298599960885e+01
5.350000000000000000e+02	5.609932818922586506e+01
5.360000000000000000e+02	3.369845247518146181e+01
5.370000000000000000e+02	1.985312212305580815e+01
5.380000000000000000e+02	1.147134207658911009e+01
5.390000000000000000e+02	6.500791050274269622e+00
5.400000000000000000e+02	3.613139614349590190e+00
5.410000000000000000e+02	1.969562829477975230e+00
5.420000000000000000e+02	1.052983328953259301e+00
5.430000000000000000e+02	5.521279226639279614e-01
5.440000000000000000e+02	2.839386328004503968e-01
5.450000000000000000e+02	1.432108169839781953e-01
5.460000000000000000e+02	7.084247369901898461e-02
5.470000000000000000e+02	3.436989241973732040e-02
5.480000000000000000e+02	1.635419560202586164e-02
5.490000000000000000e+02	7.632147633361104598e-03
5.500000000000000000e+02	3.493259889989283520e-03
5.510000000000000000e+02	1.568128297157632932e-03
5.520000000000000000e+02	6.903969214938434924e-04
5.530000000000000000e+02	2.981141980890768652e-04
5.540000000000000000e+02	1.262504789725858018e-04
5.550000000000000000e+02	5.243846475407448060e-05
5.560000000000000000e+02	2.136158443215293521e-05
5.570000000000000000e+02	8.534606764791334566e-06
5.580000000000000000e+02	3.344260729055484530e-06
5.590000000000000000e+02	1.285237244367369619e-06
5.600000000000000000e+02	4.844322363713710232e-07
5.610000000000000000e+02	1.790809247461515908e-07
5.620000000000000000e+02	6.492802328899746547e-08
5.630000000000000000e+02	2.308774907664405490e-08
5.640000000000000000e+02	8.051885050356260558e-09
5.650000000000000000e+02	2.754102494182036125e-09
5.660000000000000000e+02	9.239089850968165219e-10
5.670000000000000000e+02	3.039798824179471600e-10
5.680000000000000000e+02	9.809052399225658077e-11
5.690000000000000000e+02	3.104386786115772806e-11
5.700000000000000000e+02	9.635875003607811527e-12
5.710000000000000000e+02	2.933411897331461226e-12
5.720000000000000000e+02	8.758333944052604879e-13
5.730000000000000000e+02	2.564699642758457493e-13
5.740000000000000000e+02	7.365768787894683123e-14
5.750000000000000000e+02	2.074752100382671510e-14
5.760000000000000000e+02	5.731666376971205799e-15
5.770000000000000000e+02	1.552966737805063620e-15
5.780000000000000000e+02	4.126767143818266370e-16
5.790000000000000000e+02	1.075534471275741078e-16
5.800000000000000000e+02	2.749193219934058460e-17
5.810000000000000000e+02	6.892118786494814941e-18
5.820000000000000000e+02	1.694598445095117659e-18
5.830000000000000000e+02	4.086461513235314228e-19
5.840000000000000000e+02	9.664838077215126954e-20
5.850000000000000000e+02	2.241859087685632454e-20
5.860000000000000000e+02	5.100216365416939040e-21
5.870000000000000000e+02	1.137982148386472442e-21
5.880000000000000000e+02	2.490283883663978599e-22
5.890000000000000000e+02	5.344767605227775847e-23
5.900000000000000000e+02	1.125059146766097506e-23
5.910000000000000000e+02	2.322674987063664111e-24
5.920000000000000000e+02	4.702925413555231351e-25
5.930000000000000000e+02	9.339299414567744079e-26
5.940000000000000000e+02	1.818976409425995910e-26
5.950000000000000000e+02	3.474612632241877702e-27
5.960000000000000000e+02	6.509569702248119093e-28
5.970000000000000000e+02	1.196092394522553914e-28
5.980000000000000000e+02	2.155478701839998290e-29
5.990000000000000000e+02	3.809687060993063267e-30
6.000000000000000000e+02	6.603914314482805579e-31
6.010000000000000000e+02	1.122742380205156287e-31
6.020000000000000000e+02	1.872084134514767086e-32
6.030000000000000000e+02	3.061520480364552913e-33
6.040000000000000000e+02	4.910384895421169520e-34
6.050000000000000000e+02	7.724323626618050887e-35
6.060000000000000000e+02	1.191713740989788285e-35
6.070000000000000000e+02	1.803225302366781380e-36
6.080000000000000000e+02	2.676052307684782406e-37
6.090000000000000000e+02	3.894984766845779458e-38
6.100000000000000000e+02	5.560111344742527952e-39
6.110000000000000000e+02	7.784447136317361782e-40
6.120000000000000000e+02	1.068903794058390858e-40
6.130000000000000000e+02	1.439514432034811343e-41
6.140000000000000000e+02	1.901340888620542017e-42
6.150000000000000000e+02	2.463034597393291157e-43
6.160000000000000000e+02	3.129302856137510794e-44
6.170000000000000000e+02	3.899341219029666923e-45
6.180000000000000000e+02	4.765422867563622178e-46
6.190000000000000000e+02	5.711868602937855792e-47
6.200000000000000000e+02	6.714621425227145711e-48
6.210000000000000000e+02	7.741612251498617314e-49
6.220000000000000000e+02	8.754026533483800561e-50
6.230000000000000000e+02	9.708471538339421665e-51
6.240000000000000000e+02	1.055991505575142452e-51
6.250000000000000000e+02	1.126513881117403702e-52
6.260000000000000000e+02	1.178634719721438524e-53
6.270000000000000000e+02	1.209451542411393107e-54
6.280000000000000000e+02	1.217206534153115896e-55
6.290000000000000000e+02	1.201452587965361405e-56
6.300000000000000000e+02	1.163095992268972667e-57
6.310000000000000000e+02	1.104310092105678680e-58
6.320000000000000000e+02	1.028331366119939131e-59
6.330000000000000000e+02	9.391645352786807880e-61
6.340000000000000000e+02	8.412340554238370681e-62
6.350000000000000000e+02	7.390240418011529792e-63
6.360000000000000000e+02	6.367469129222643412e-64
6.370000000000000000e+02	5.380736057388452873e-65
6.380000000000000000e+02	4.459468389021687778e-66
6.390000000000000000e+02	3.624858435378013019e-67
6.400000000000000000e+02	2.889785255294936930e-68
6.410000000000000000e+02	2.259470373132339658e-69
6.420000000000000000e+02	1.732663757380385615e-70
6.430000000000000000e+02	1.303132244996823782e-71
6.440000000000000000e+02	9.612342812883971232e-73
6.450000000000000000e+02	6.954030172042550545e-74
6.460000000000000000e+02	4.934128437293439677e-75
6.470000000000000000e+02	3.433609402064555967e-76
6.480000000000000000e+02	2.343461854218140149e-77
6.490000000000000000e+02	1.568669482465715903e-78
6.500000000000000000e+02	1.029844292780073025e-79
6.510000000000000000e+02	6.630988050055653193e-81
6.520000000000000000e+02	4.187467831799654933e-82
6.530000000000000000e+02	2.593530037246693925e-83
6.540000000000000000e+02	1.575424664539170683e-84
6.550000000000000000e+02	9.385784067920229846e-86
6.560000000000000000e+02	5.484158984525224724e-87
6.570000000000000000e+02	3.142795149188176569e-88
6.580000000000000000e+02	1.766398436940234572e-89
6.590000000000000000e+02	9.737059619717445159e-91
6.600000000000000000e+02	5.264214128849097865e-92
6.610000000000000000e+02	2.791295552425028056e-93
6.620000000000000000e+02	1.451592315840179487e-94
6.630000000000000000e+02	7.403721218417845586e-96
6.640000000000000000e+02	3.703582420522152553e-97
6.650000000000000000e+02	1.817023442728532188e-98
6.660000000000000000e+02	8.743103243647349116e-100
6.670000000000000000e+02	4.126076188317431498e-101
6.680000000000000000e+02	1.909745252203659555e-102
6.690000000000000000e+02	8.669223405839409171e-104
6.700000000000000000e+02	3.859681875811409949e-105
6.710000000000000000e+02	1.685347208730643892e-106
6.720000000000000000e+02	7.217616814036915895e-108
6.730000000000000000e+02	3.031550566537819570e-109
6.740000000000000000e+02	1.248827264662350189e-110
6.750000000000000000e+02	5.045526443844452072e-112
6.760000000000000000e+02	1.999296296134213850e-113
6.770000000000000000e+02	7.769881512016559141e-115
6.780000000000000000e+02	2.961544007200228770e-116
6.790000000000000000e+02	1.107104318212433710e-117
6.800000000000000000e+02	4.059059886318621527e-119
6.810000000000000000e+02	1.459583458301940407e-120
6.820000000000000000e+02	5.147530950663189401e-122
6.830000000000000000e+02	1.780473688881684696e-123
6.840000000000000000e+02	6.040024687336142664e-125
6.850000000000000000e+02	2.009594470320656554e-126
6.860000000000000000e+02	6.557596649807767766e-128
6.870000000000000000e+02	2.098686327595117302e-129
6.880000000000000000e+02	6.587443844846920861e-131
6.890000000000000000e+02	2.027929620794220211e-132
6.900000000000000000e+02	6.122874971638868203e-134
6.910000000000000000e+02	1.813111296085572855e-135
6.920000000000000000e+02	5.265748295874020894e-137
6.930000000000000000e+02	1.499899940637609552e-138
6.940000000000000000e+02	4.190164179121474507e-140
6.950000000000000000e+02	1.148064667893590414e-141
6.960000000000000000e+02	3.085092735800658696e-143
6.970000000000000000e+02	8.130863206996715109e-145
6.980000000000000000e+02	2.101704460070252624e-146
6.990000000000000000e+02	5.328110179209562961e-148
7.000000000000000000e+02	1.324772510953882086e-149
7.010000000000000000e+02	3.230546367004742496e-151
7.020000000000000000e+02	7.726400378767076613e-153
7.030000000000000000e+02	1.812362217512598966e-154
7.040000000000000000e+02	4.169455568230475711e-156
7.050000000000000000e+02	9.407630691872833154e-158
7.060000000000000000e+02	2.081841829188378126e-159
7.070000000000000000e+02	4.518369673609337950e-161
7.080000000000000000e+02	9.617946341878758730e-163
7.090000000000000000e+02	2.007934303955431941e-164
7.100000000000000000e+02	4.111338249958100278e-166
7.110000000000000000e+02	8.256262223578272400e-168
7.120000000000000000e+02	1.626111446836468752e-169
7.130000000000000000e+02	3.141113981320168978e-171
7.140000000000000000e+02	5.950913596447737029e-173
7.150000000000000000e+02	1.105732699911395025e-174
7.160000000000000000e+02	2.015037912100088304e-176
7.170000000000000000e+02	3.601495279541560411e-178
7.180000000000000000e+02	6.313192588401619294e-180
7.190000000000000000e+02	1.085379928131806790e-181
7.200000000000000000e+02	1.830126433109387389e-183
7.210000000000000000e+02	3.026543785838292754e-185
7.220000000000000000e+02	4.908845787130080130e-187
7.230000000000000000e+02	7.808693491334966859e-189
7.240000000000000000e+02	1.218271047691006907e-190
7.250000000000000000e+02	1.864129289816374524e-192
7.260000000000000000e+02	2.797529643360768381e-194
7.270000000000000000e+02	4.117559881397731923e-196
7.280000000000000000e+02	5.943902957188147935e-198
7.290000000000000000e+02	8.415308792937212436e-200
7.300000000000000000e+02	1.168516805870049304e-201
7.310000000000000000e+02	1.591352639978408285e-203
7.320000000000000000e+02	2.125516373552134853e-205
7.330000000000000000e+02	2.784383429813375208e-207
7.340000000000000000e+02	3.577339732358544112e-209
7.350000000000000000e+02	4.507729962403901874e-211
7.360000000000000000e+02	5.570858875815728266e-213
7.370000000000000000e+02	6.752319472829444362e-215
7.380000000000000000e+02	8.026946471313039600e-217
7.390000000000000000e+02	9.358673833924511895e-219
7.400000000000000000e+02	1.070150395298368091e-220
7.410000000000000000e+02	1.200167551458147888e-222
7.420000000000000000e+02	1.320095969316584095e-224
7.430000000000000000e+02	1.424084269292985930e-226
7.440000000000000000e+02	1.506719583953350426e-228
7.450000000000000000e+02	1.563492264891539072e-230
7.460000000000000000e+02	1.591203043013702085e-232
7.470000000000000000e+02	1.588261557037474236e-234
7.480000000000000000e+02	1.554837503632704495e-236
7.490000000000000000e+02	1.492844425452412813e-238
7.500000000000000000e+02	1.405758291541098891e-240
7.510000000000000000e+02	1.298294797067264147e-242
7.520000000000000000e+02	1.175987050211726871e-244
7.530000000000000000e+02	1.044716182580914114e-246
7.540000000000000000e+02	9.102499512724444130e-249
7.550000000000000000e+02	7.778387352805529712e-251
7.560000000000000000e+02	6.519060757882157247e-253
7.570000000000000000e+02	5.358547078422733834e-255
7.580000000000000000e+02	4.319919285393503330e-257
7.590000000000000000e+02	3.415629643330425395e-259
7.600000000000000000e+02	2.648698194409376105e-261
7.610000000000000000e+02	2.014469687538339676e-263
7.620000000000000000e+02	1.502642118988581049e-265
7.630000000000000000e+02	1.099301799564154343e-267
7.640000000000000000e+02	7.887600025630413546e-270
7.650000000000000000e+02	5.550592958685277517e-272
7.660000000000000000e+02	3.830896695696935593e-274
7.670000000000000000e+02	2.593152520553973225e-276
7.680000000000000000e+02	1.721560309505467978e-278
7.690000000000000000e+02	1.120941586180930183e-280
7.700000000000000000e+02	7.158306360990655034e-283
7.710000000000000000e+02	4.483365453998727168e-285
7.720000000000000000e+02	2.754003961634910773e-287
7.730000000000000000e+02	1.659172496857990501e-289
7.740000000000000000e+02	9.803588626403720344e-292
7.750000000000000000e+02	5.681266715914193025e-294
7.760000000000000000e+02	3.229028196032892192e-296
7.770000000000000000e+02	1.799969126663825427e-298
7.780000000000000000e+02	9.840673770608493645e-301
7.790000000000000000e+02	5.276563550918193680e-303
7.800000000000000000e+02	2.774879135470214503e-305
7.810000000000000000e+02	1.431210552170921340e-307
7.820000000000000000e+02	7.239849654947553009e-310
7.830000000000000000e+02	3.591882580482818752e-312
7.840000000000000000e+02	1.747763349565549373e-314
7.850000000000000000e+02	8.336106799355765397e-317
7.860000000000000000e+02	3.458953586534567056e-319
7.870000000000000000e+02	0.000000000000000000e+00
7.880000000000000000e+02	0.000000000000000000e+00
7.890000000000000000e+02	0.000000000000000000e+00
7.900000000000000000e+02	0.000000000000000000e+00
7.910000000000000000e+02	0.000000000000000000e+00
7.920000000000000000e+02	0.000000000000000000e+00
7.930000000000000000e+02	0.000000000000000000e+00
7.940000000000000000e+02	0.000000000000000000e+00
7.950000000000000000e+02	0.000000000000000000e+00
7.960000000000000000e+02	0.000000000000000000e+00
7.970000000000000000e+02	0.000000000000000000e+00
7.980000000000000000e+02	0.000000000000000000e+00
7.990000000000000000e+02	0.000000000000000000e+00
8.000000000000000000e+02	0.000000000000000000e+00
8.010000000000000000e+02	0.000000000000000000e+00
8.020000000000000000e+02	0.000000000000000000e+00
8.030000000000000000e+02	0.000000000000000000e+00
8.040000000000000000e+02	0.000000000000000000e+00
8.050000000000000000e+02	0.000000000000000000e+00
8.060000000000000000e+02	0.000000000000000000e+00
8.070000000000000000e+02	0.000000000000000000e+00
8.080000000000000000e+02	0.000000000000000000e+00
8.090000000000000000e+02	0.000000000000000000e+00
8.100000000000000000e+02	0.000000000000000000e+00
8.110000000000000000e+02	0.000000000000000000e+00
8.120000000000000000e+02	0.000000000000000000e+00
8.130000000000000000e+02	0.000000000000000000e+00
8.140000000000000000e+02	0.000000000000000000e+00
8.150000000000000000e+02	0.000000000000000000e+00
8.160000000000000000e+02	0.000000000000000000e+00
8.170000000000000000e+02	0.000000000000000000e+00
8.180000000000000000e+02	0.000000000000000000e+00
8.190000000000000000e+02	0.000000000000000000e+00
8.200000000000000000e+02	0.000000000000000000e+00
8.210000000000000000e+02	0.000000000000000000e+00
8.220000000000000000e+02	0.000000000000000000e+00
8.230000000000000000e+02	0.000000000000000000e+00
8.240000000000000000e+02	0.000000000000000000e+00
8.250000000000000000e+02	0.000000000000000000e+00
8.260000000000000000e+02	0.000000000000000000e+00
8.270000000000000000e+02	0.000000000000000000e+00
8.280000000000000000e+02	0.000000000000000000e+00
8.290000000000000000e+02	0.000000000000000000e+00
8.300000000000000000e+02	0.000000000000000000e+00
8.310000000000000000e+02	0.000000000000000000e+00
8.320000000000000000e+02	0.000000000000000000e+00
8.330000000000000000e+02	0.000000000000000000e+00
8.340000000000000000e+02	0.000000000000000000e+00
8.350000000000000000e+02	0.000000000000000000e+00
8.360000000000000000e+02	0.000000000000000000e+00
8.370000000000000000e+02	0.000000000000000000e+00
8.380000000000000000e+02	0.000000000000000000e+00
8.390000000000000000e+02	0.000000000000000000e+00
8.400000000000000000e+02	0.000000000000000000e+00
8.410000000000000000e+02	0.000000000000000000e+00
8.420000000000000000e+02	0.000000000000000000e+00
8.430000000000000000e+02	0.000000000000000000e+00
8.440000000000000000e+02	0.000000000000000000e+00
8.450000000000000000e+02	0.000000000000000000e+00
8.460000000000000000e+02	0.000000000000000000e+00
8.470000000000000000e+02	0.000000000000000000e+00
8.480000000000000000e+02	0.000000000000000000e+00
8.490000000000000000e+02	0.000000000000000000e+00
8.500000000000000000e+02	0.000000000000000000e+00
8.510000000000000000e+02	0.000000000000000000e+00
8.520000000000000000e+02	0.000000000000000000e+00
8.530000000000000000e+02	0.000000000000000000e+00
8.540000000000000000e+02	0.000000000000000000e+00
8.550000000000000000e+02	0.000000000000000000e+00
8.560000000000000000e+02	0.000000000000000000e+00
8.570000000000000000e+02	0.000000000000000000e+00
8.580000000000000000e+02	0.000000000000000000e+00
8.590000000000000000e+02	0.000000000000000000e+00
8.600000000000000000e+02	0.000000000000000000e+00
8.610000000000000000e+02	0.000000000000000000e+00
8.620000000000000000e+02	0.000000000000000000e+00
8.630000000000000000e+02	0.000000000000000000e+00
8.640000000000000000e+02	0.000000000000000000e+00
8.650000000000000000e+02	0.000000000000000000e+00
8.660000000000000000e+02	0.000000000000000000e+00
8.670000000000000000e+02	0.000000000000000000e+00
8.680000000000000000e+02	0.000000000000000000e+00
8.690000000000000000e+02	0.000000000000000000e+00
8.700000000000000000e+02	0.000000000000000000e+00
8.710000000000000000e+02	0.000000000000000000e+00
8.720000000000000000e+02	0.000000000000000000e+00
8.730000000000000000e+02	0.000000000000000000e+00
8.740000000000000000e+02	0.000000000000000000e+00
8.750000000000000000e+02	0.000000000000000000e+00
8.760000000000000000e+02	0.000000000000000000e+00
8.770000000000000000e+02	0.000000000000000000e+00
8.780000000000000000e+02	0.000000000000000000e+00
8.790000000000000000e+02	0.000000000000000000e+00
8.800000000000000000e+02	0.000000000000000000e+00
8.810000000000000000e+02	0.000000000000000000e+00
8.820000000000000000e+02	0.000000000000000000e+00
8.830000000000000000e+02	0.000000000000000000e+00
8.840000000000000000e+02	0.000000000000000000e+00
8.850000000000000000e+02	0.000000000000000000e+00
8.860000000000000000e+02	0.000000000000000000e+00
8.870000000000000000e+02	0.000000000000000000e+00
8.880000000000000000e+02	0.000000000000000000e+00
8.890000000000000000e+02	0.000000000000000000e+00
8.900000000000000000e+02	0.000000000000000000e+00
8.910000000000000000e+02	0.000000000000000000e+00
8.920000000000000000e+02	0.000000000000000000e+00
8.930000000000000000e+02	0.000000000000000000e+00
8.940000000000000000e+02	0.000000000000000000e+00
8.950000000000000000e+02	0.000000000000000000e+00
8.960000000000000000e+02	0.000000000000000000e+00
8.970000000000000000e+02	0.000000000000000000e+00
8.980000000000000000e+02	0.000000000000000000e+00
8.990000000000000000e+02	0.000000000000000000e+00
9.000000000000000000e+02	0.000000000000000000e+00
9.010000000000000000e+02	0.000000000000000000e+00
9.020000000000000000e+02	0.000000000000000000e+00
9.030000000000000000e+02	0.000000000000000000e+00
9.040000000000000000e+02	0.000000000000000000e+00
9.050000000000000000e+02	0.000000000000000000e+00
9.060000000000000000e+02	0.000000000000000000e+00
9.070000000000000000e+02	0.000000000000000000e+00
9.080000000000000000e+02	0.000000000000000000e+00
9.090000000000000000e+02	0.000000000000000000e+00
9.100000000000000000e+02	0.000000000000000000e+00
9.110000000000000000e+02	0.000000000000000000e+00
9.120000000000000000e+02	0.000000000000000000e+00
9.130000000000000000e+02	0.000000000000000000e+00
9.140000000000000000e+02	0.000000000000000000e+00
9.150000000000000000e+02	0.000000000000000000e+00
9.160000000000000000e+02	0.000000000000000000e+00
9.170000000000000000e+02	0.000000000000000000e+00
9.180000000000000000e+02	0.000000000000000000e+00
9.190000000000000000e+02	0.000000000000000000e+00
9.200000000000000000e+02	0.000000000000000000e+00
9.210000000000000000e+02	0.000000000000000000e+00
9.220000000000000000e+02	0.000000000000000000e+00
9.230000000000000000e+02	0.000000000000000000e+00
9.240000000000000000e+02	0.000000000000000000e+00
9.250000000000000000e+02	0.000000000000000000e+00
9.260000000000000000e+02	0.000000000000000000e+00
9.270000000000000000e+02	0.000000000000000000e+00
9.280000000000000000e+02	0.000000000000000000e+00
9.290000000000000000e+02	0.000000000000000000e+00
9.300000000000000000e+02	0.000000000000000000e+00
9.310000000000000000e+02	0.000000000000000000e+00
9.320000000000000000e+02	0.000000000000000000e+00
9.330000000000000000e+02	0.000000000000000000e+00
9.340000000000000000e+02	0.000000000000000000e+00
9.350000000000000000e+02	0.000000000000000000e+00
9.360000000000000000e+02	0.000000000000000000e+00
9.370000000000000000e+02	0.000000000000000000e+00
9.380000000000000000e+02	0.000000000000000000e+00
9.390000000000000000e+02	0.000000000000000000e+00
9.400000000000000000e+02	0.000000000000000000e+00
9.410000000000000000e+02	0.000000000000000000e+00
9.420000000000000000e+02	0.000000000000000000e+00
9.430000000000000000e+02	0.000000000000000000e+00
9.440000000000000000e+02	0.000000000000000000e+00
9.450000000000000000e+02	0.000000000000000000e+00
9.460000000000000000e+02	0.000000000000000000e+00
9.470000000000000000e+02	0.000000000000000000e+00
9.480000000000000000e+02	0.000000000000000000e+00
9.490000000000000000e+02	0.000000000000000000e+00
9.500000000000000000e+02	0.000000000000000000e+00
9.510000000000000000e+02	0.000000000000000000e+00
9.520000000000000000e+02	0.000000000000000000e+00
9.530000000000000000e+02	0.000000000000000000e+00
9.540000000000000000e+02	0.000000000000000000e+00
9.550000000000000000e+02	0.000000000000000000e+00
9.560000000000000000e+02	0.000000000000000000e+00
9.570000000000000000e+02	0.000000000000000000e+00
9.580000000000000000e+02	0.000000000000000000e+00
9.590000000000000000e+02	0.000000000000000000e+00
9.600000000000000000e+02	0.000000000000000000e+00
9.610000000000000000e+02	0.000000000000000000e+00
9.620000000000000000e+02	0.000000000000000000e+00
9.630000000000000000e+02	0.000000000000000000e+00
9.640000000000000000e+02	0.000000000000000000e+00
9.650000000000000000e+02	0.000000000000000000e+00
9.660000000000000000e+02	0.000000000000000000e+00
9.670000000000000000e+02	0.000000000000000000e+00
9.680000000000000000e+02	0.000000000000000000e+00
9.690000000000000000e+02	0.000000000000000000e+00
9.700000000000000000e+02	0.000000000000000000e+00
9.710000000000000000e+02	0.000000000000000000e+00
9.720000000000000000e+02	0.000000000000000000e+00
9.730000000000000000e+02	0.000000000000000000e+00
9.740000000000000000e+02	0.000000000000000000e+00
9.750000000000000000e+02	0.000000000000000000e+00
9.760000000000000000e+02	0.000000000000000000e+00
9.770000000000000000e+02	0.000000000000000000e+00
9.780000000000000000e+02	0.000000000000000000e+00
9.790000000000000000e+02	0.000000000000000000e+00
9.800000000000000000e+02	0.000000000000000000e+00
9.810000000000000000e+02	0.000000000000000000e+00
9.820000000000000000e+02	0.000000000000000000e+00
9.830000000000000000e+02	0.000000000000000000e+00
9.840000000000000000e+02	0.000000000000000000e+00
9.850000000000000000e+02	0.000000000000000000e+00
9.860000000000000000e+02	0.000000000000000000e+00
9.870000000000000000e+02	0.000000000000000000e+00
9.880000000000000000e+02	0.000000000000000000e+00
9.890000000000000000e+02	0.000000000000000000e+00
9.900000000000000000e+02	0.000000000000000000e+00
9.910000000000000000e+02	0.000000000000000000e+00
9.920000000000000000e+02	0.000000000000000000e+00
9.930000000000000000e+02	0.000000000000000000e+00
9.940000000000000000e+02	0.000000000000000000e+00
9.950000000000000000e+02	0.000000000000000000e+00
9.960000000000000000e+02	0.000000000000000000e+00
9.970000000000000000e+02	0.000000000000000000e+00
9.980000000000000000e+02	0.000000000000000000e+00
9.990000000000000000e+02	0.000000000000000000e+00
1.000000000000000000e+03	0.000000000000000000e+00
