4.410000000000000000e+02	8.973820685231404468e+02
4.420000000000000000e+02	9.136776846911601524e+02
4.430000000000000000e+02	9.301344816610617272e+02
4.440000000000000000e+02	9.467505527015115376e+02
4.450000000000000000e+02	9.635238870580222965e+02
4.460000000000000000e+02	9.804523692699693811e+02
4.470000000000000000e+02	9.975337785519509453e+02
4.480000000000000000e+02	1.014765788241171208e+03
4.490000000000000000e+02	1.032145965312492308e+03
4.500000000000000000e+02	1.049671769962757025e+03
4.510000000000000000e+02	1.067340555265946477e+03
4.520000000000000000e+02	1.085149566900683794e+03
4.530000000000000000e+02	1.103095942951554434e+03
4.540000000000000000e+02	1.121176713785659103e+03
4.550000000000000000e+02	1.139388802005758635e+03
4.560000000000000000e+02	1.157729022481326410e+03
4.570000000000000000e+02	1.176194082458749563e+03
4.580000000000000000e+02	1.194780581751872660e+03
4.590000000000000000e+02	1.213485013014010974e+03
4.600000000000000000e+02	1.232303762092489933e+03
4.610000000000000000e+02	1.251233108466708927e+03
4.620000000000000000e+02	1.270269225770651701e+03
4.630000000000000000e+02	1.289408182400691885e+03
4.640000000000000000e+02	1.308645942209479244e+03
4.650000000000000000e+02	1.327978365286600138e+03
4.660000000000000000e+02	1.347401208826642460e+03
4.670000000000000000e+02	1.366910128085206907e+03
4.680000000000000000e+02	1.386500677423323850e+03
4.690000000000000000e+02	1.406168311440660773e+03
4.700000000000000000e+02	1.425908386197810614e+03
4.710000000000000000e+02	1.445716160527864986e+03
4.720000000000000000e+02	1.465586797437396626e+03
4.730000000000000000e+02	1.485515365596877700e+03
4.740000000000000000e+02	1.505496840920471413e+03
4.750000000000000000e+02	1.525526108235047786e+03
4.760000000000000000e+02	1.545597963038196212e+03
4.770000000000000000e+02	1.565707113345058360e+03
4.780000000000000000e+02	1.585848181624740164e+03
4.790000000000000000e+02	1.606015706833895365e+03
4.800000000000000000e+02	1.626204146598167654e+03
4.810000000000000000e+02	1.646407879842869988e+03
4.820000000000000000e+02	1.666621211525872923e+03
4.830000000000000000e+02	1.686838387885857628e+03
4.840000000000000000e+02	1.707053661945778913e+03
4.850000000000000000e+02	1.727261583304033593e+03
4.860000000000000000e+02	1.747458217779468669e+03
4.870000000000000000e+02	1.767645940267323340e+03
4.880000000000000000e+02	1.787850931368474221e+03
4.890000000000000000e+02	1.808182372003083856e+03
4.900000000000000000e+02	1.829017663350942712e+03
4.910000000000000000e+02	1.851537171340321265e+03
4.920000000000000000e+02	1.879144474811507962e+03
4.930000000000000000e+02	1.920922846350650616e+03
4.940000000000000000e+02	1.999301954977767082e+03
4.950000000000000000e+02	2.165435645487262263e+03
4.960000000000000000e+02	2.526759324227099114e+03
4.970000000000000000e+02	3.290210462263568843e+03
4.980000000000000000e+02	4.819181043584646432e+03
4.990000000000000000e+02	7.690243846669622144e+03
5.000000000000000000e+02	1.271789702436302287e+04
5.010000000000000000e+02	2.089921892468611986e+04
5.020000000000000000e+02	3.322993248622055398e+04
5.030000000000000000e+02	5.037525052319163660e+04
5.040000000000000000e+02	7.224807080387097085e+04
5.050000000000000000e+02	9.763320050166982401e+04
5.060000000000000000e+02	1.240513888656950585e+05
5.070000000000000000e+02	1.480268858638489619e+05
5.080000000000000000e+02	1.657861737610250420e+05
5.090000000000000000e+02	1.742174218639837636e+05
5.100000000000000000e+02	1.717607610898503335e+05
5.110000000000000000e+02	1.588803429952166916e+05
5.120000000000000000e+02	1.379222613899813732e+05
5.130000000000000000e+02	1.124179697697795928e+05
5.140000000000000000e+02	8.611685619940557808e+04
5.150000000000000000e+02	6.211013327209949057e+04
5.160000000000000000e+02	4.231660579227195558e+04
5.170000000000000000e+02	2.740986731524711649e+04
5.180000000000000000e+02	1.708631532856954436e+04
5.190000000000000000e+02	1.048365462167799524e+04
5.200000000000000000e+02	6.573236396677073571e+03
5.210000000000000000e+02	4.425698686523641300e+03
5.220000000000000000e+02	3.332385697363406052e+03
5.230000000000000000e+02	2.818229820268712956e+03
5.240000000000000000e+02	2.597519781496265296e+03
5.250000000000000000e+02	2.514294606598035443e+03
5.260000000000000000e+02	2.490706502621701929e+03
5.270000000000000000e+02	2.491042567643091388e+03
5.280000000000000000e+02	2.500189507561425671e+03
5.290000000000000000e+02	2.512230098112916949e+03
5.300000000000000000e+02	2.525015020046651898e+03
5.310000000000000000e+02	2.537817194278641182e+03
5.320000000000000000e+02	2.550405519361052939e+03
5.330000000000000000e+02	2.562709072655704858e+03
5.340000000000000000e+02	2.574704961698815623e+03
5.350000000000000000e+02	2.586383729495434636e+03
5.360000000000000000e+02	2.597739478734687054e+03
5.370000000000000000e+02	2.608767259738443499e+03
5.380000000000000000e+02	2.619462430904348821e+03
5.390000000000000000e+02	2.629820515043419164e+03
5.400000000000000000e+02	2.639837171278538335e+03
5.410000000000000000e+02	2.649508191896143671e+03
5.420000000000000000e+02	2.658829504151441142e+03
5.430000000000000000e+02	2.667797172929885619e+03
5.440000000000000000e+02	2.676407403483476628e+03
5.450000000000000000e+02	2.684656544101465897e+03
5.460000000000000000e+02	2.692541088690195920e+03
5.470000000000000000e+02	2.700057679256027768e+03
5.480000000000000000e+02	2.707203108288426847e+03
5.490000000000000000e+02	2.713974321040752329e+03
5.500000000000000000e+02	2.720368417706481978e+03
5.510000000000000000e+02	2.726382655488700038e+03
5.520000000000000000e+02	2.732014450560780006e+03
5.530000000000000000e+02	2.737261379916299120e+03
5.540000000000000000e+02	2.742121183106331500e+03
5.550000000000000000e+02	2.746591763862378684e+03
5.560000000000000000e+02	2.750671191603299576e+03
5.570000000000000000e+02	2.754357702824734133e+03
5.580000000000000000e+02	2.757649702369606075e+03
5.590000000000000000e+02	2.760545764578441322e+03
5.600000000000000000e+02	2.763044634318322551e+03
5.610000000000000000e+02	2.765145227889454418e+03
5.620000000000000000e+02	2.766846633808416755e+03
5.630000000000000000e+02	2.768148113467309486e+03
5.640000000000000000e+02	2.769049101668133062e+03
5.650000000000000000e+02	2.769549207031850528e+03
5.660000000000000000e+02	2.769648212281724682e+03
5.670000000000000000e+02	2.769346074400643374e+03
5.680000000000000000e+02	2.768642924662266978e+03
5.690000000000000000e+02	2.767539068535973001e+03
5.700000000000000000e+02	2.766034985465693808e+03
5.710000000000000000e+02	2.764131328522864351e+03
5.720000000000000000e+02	2.761828923933842361e+03
5.730000000000000000e+02	2.759128770482270284e+03
5.740000000000000000e+02	2.756032038786992416e+03
5.750000000000000000e+02	2.752540070456247122e+03
5.760000000000000000e+02	2.748654377119005858e+03
5.770000000000000000e+02	2.744376639334418542e+03
5.780000000000000000e+02	2.739708705380482570e+03
5.790000000000000000e+02	2.734652589923152846e+03
5.800000000000000000e+02	2.729210472567228862e+03
5.810000000000000000e+02	2.723384696290485863e+03
5.820000000000000000e+02	2.717177765762620766e+03
5.830000000000000000e+02	2.710592345550702703e+03
5.840000000000000000e+02	2.703631258212927150e+03
5.850000000000000000e+02	2.696297482282581768e+03
5.860000000000000000e+02	2.688594150144244850e+03
5.870000000000000000e+02	2.680524545804326863e+03
5.880000000000000000e+02	2.672092102558186070e+03
5.890000000000000000e+02	2.663300400556131535e+03
5.900000000000000000e+02	2.654153164270730485e+03
5.910000000000000000e+02	2.644654259867929341e+03
5.920000000000000000e+02	2.634807692484582276e+03
5.930000000000000000e+02	2.624617603415072153e+03
5.940000000000000000e+02	2.614088267209790956e+03
5.950000000000000000e+02	2.603224088688320080e+03
5.960000000000000000e+02	2.592029599870235415e+03
5.970000000000000000e+02	2.580509456826522182e+03
5.980000000000000000e+02	2.568668436454672701e+03
5.990000000000000000e+02	2.556511433180574841e+03
6.000000000000000000e+02	2.544043455590386202e+03
6.010000000000000000e+02	2.531269622995636837e+03
6.020000000000000000e+02	2.518195161934845601e+03
6.030000000000000000e+02	2.504825402614997984e+03
6.040000000000000000e+02	2.491165775296271477e+03
6.050000000000000000e+02	2.477221806623434077e+03
6.060000000000000000e+02	2.462999115907375653e+03
6.070000000000000000e+02	2.448503411360270547e+03
6.080000000000000000e+02	2.433740486287890690e+03
6.090000000000000000e+02	2.418716215242614908e+03
6.100000000000000000e+02	2.403436550140698273e+03
6.110000000000000000e+02	2.387907516347379897e+03
6.120000000000000000e+02	2.372135208733421678e+03
6.130000000000000000e+02	2.356125787706670508e+03
6.140000000000000000e+02	2.339885475222245532e+03
6.150000000000000000e+02	2.323420550774942512e+03
6.160000000000000000e+02	2.306737347377454626e+03
6.170000000000000000e+02	2.289842247527977634e+03
6.180000000000000000e+02	2.272741679170775569e+03
6.190000000000000000e+02	2.255442111653253505e+03
6.200000000000000000e+02	2.237950051683054426e+03
6.210000000000000000e+02	2.220272039288694032e+03
6.220000000000000000e+02	2.202414643787189107e+03
6.230000000000000000e+02	2.184384459762126880e+03
6.240000000000000000e+02	2.166188103055562351e+03
6.250000000000000000e+02	2.147832206777114607e+03
6.260000000000000000e+02	2.129323417333561792e+03
6.270000000000000000e+02	2.110668390482206632e+03
6.280000000000000000e+02	2.091873787411228022e+03
6.290000000000000000e+02	2.072946270850168730e+03
6.300000000000000000e+02	2.053892501213667856e+03
6.310000000000000000e+02	2.034719132781475082e+03
6.320000000000000000e+02	2.015432809917722807e+03
6.330000000000000000e+02	1.996040163332364500e+03
6.340000000000000000e+02	1.976547806387618948e+03
6.350000000000000000e+02	1.956962331452190483e+03
6.360000000000000000e+02	1.937290306305957529e+03
6.370000000000000000e+02	1.917538270597740620e+03
6.380000000000000000e+02	1.897712732358691710e+03
6.390000000000000000e+02	1.877820164573761758e+03
6.400000000000000000e+02	1.857867001813610841e+03
6.410000000000000000e+02	1.837859636929253156e+03
6.420000000000000000e+02	1.817804417811635858e+03
6.430000000000000000e+02	1.797707644218260612e+03
6.440000000000000000e+02	1.777575564668870584e+03
6.450000000000000000e+02	1.757414373412128043e+03
6.460000000000000000e+02	1.737230207465124067e+03
6.470000000000000000e+02	1.717029143727459314e+03
6.480000000000000000e+02	1.696817196171544538e+03
6.490000000000000000e+02	1.676600313110673596e+03
6.500000000000000000e+02	1.656384374546320032e+03
6.510000000000000000e+02	1.636175189596026485e+03
6.520000000000000000e+02	1.615978494003136120e+03
6.530000000000000000e+02	1.595799947729537280e+03
6.540000000000000000e+02	1.575645132632487957e+03
6.550000000000000000e+02	1.555519550226483261e+03
6.560000000000000000e+02	1.535428619531042386e+03
6.570000000000000000e+02	1.515377675005184983e+03
6.580000000000000000e+02	1.495371964569272450e+03
6.590000000000000000e+02	1.475416647714797591e+03
6.600000000000000000e+02	1.455516793702600353e+03
6.610000000000000000e+02	1.435677379849900262e+03
6.620000000000000000e+02	1.415903289906443661e+03
6.630000000000000000e+02	1.396199312519953992e+03
6.640000000000000000e+02	1.376570139791004294e+03
6.650000000000000000e+02	1.357020365917319168e+03
6.660000000000000000e+02	1.337554485927435053e+03
6.670000000000000000e+02	1.318176894503555559e+03
6.680000000000000000e+02	1.298891884893348561e+03
6.690000000000000000e+02	1.279703647910349218e+03
6.700000000000000000e+02	1.260616271022550563e+03
6.710000000000000000e+02	1.241633737528668917e+03
6.720000000000000000e+02	1.222759925821512297e+03
6.730000000000000000e+02	1.203998608737776294e+03
6.740000000000000000e+02	1.185353452993532528e+03
6.750000000000000000e+02	1.166828018704596161e+03
6.760000000000000000e+02	1.148425758990874556e+03
6.770000000000000000e+02	1.130150019663750982e+03
6.780000000000000000e+02	1.112004038995461997e+03
6.790000000000000000e+02	1.093990947569384161e+03
6.800000000000000000e+02	1.076113768210066382e+03
6.810000000000000000e+02	1.058375415991789623e+03
6.820000000000000000e+02	1.040778698324375000e+03
6.830000000000000000e+02	1.023326315114901831e+03
6.840000000000000000e+02	1.006020859003948999e+03
6.850000000000000000e+02	9.888648156749127338e+02
6.860000000000000000e+02	9.718605642349123173e+02
6.870000000000000000e+02	9.550103776657448407e+02
6.880000000000000000e+02	9.383164233433010395e+02
6.890000000000000000e+02	9.217807636238267150e+02
6.900000000000000000e+02	9.054053564953569548e+02
6.910000000000000000e+02	8.891920562926285356e+02
6.920000000000000000e+02	8.731426144737336017e+02
6.930000000000000000e+02	8.572586804567496301e+02
6.940000000000000000e+02	8.415418025145530692e+02
6.950000000000000000e+02	8.259934287259925441e+02
6.960000000000000000e+02	8.106149079815795631e+02
6.970000000000000000e+02	7.954074910418335094e+02
6.980000000000000000e+02	7.803723316463913307e+02
6.990000000000000000e+02	7.655104876719900631e+02
7.000000000000000000e+02	7.508229223373984951e+02
7.010000000000000000e+02	7.363105054533864404e+02
7.020000000000000000e+02	7.219740147157834826e+02
7.030000000000000000e+02	7.078141370397014498e+02
7.040000000000000000e+02	6.938314699329671384e+02
7.050000000000000000e+02	6.800265229068255621e+02
7.060000000000000000e+02	6.663997189219672919e+02
7.070000000000000000e+02	6.529513958679362986e+02
7.080000000000000000e+02	6.396818080739864172e+02
7.090000000000000000e+02	6.265911278494509133e+02
7.100000000000000000e+02	6.136794470517090758e+02
7.110000000000000000e+02	6.009467786798387579e+02
7.120000000000000000e+02	5.883930584920577758e+02
7.130000000000000000e+02	5.760181466450745802e+02
7.140000000000000000e+02	5.638218293534848726e+02
7.150000000000000000e+02	5.518038205673656194e+02
7.160000000000000000e+02	5.399637636662447449e+02
7.170000000000000000e+02	5.283012331676403619e+02
7.180000000000000000e+02	5.168157364483938636e+02
7.190000000000000000e+02	5.055067154770392222e+02
7.200000000000000000e+02	4.943735485554846605e+02
7.210000000000000000e+02	4.834155520683033842e+02
7.220000000000000000e+02	4.726319822379680318e+02
7.230000000000000000e+02	4.620220368843854430e+02
7.240000000000000000e+02	4.515848571871283070e+02
7.250000000000000000e+02	4.413195294487857723e+02
7.260000000000000000e+02	4.312250868578969971e+02
7.270000000000000000e+02	4.213005112499587881e+02
7.280000000000000000e+02	4.115447348650403683e+02
7.290000000000000000e+02	4.019566421005734469e+02
7.300000000000000000e+02	3.925350712579219703e+02
7.310000000000000000e+02	3.832788162813771464e+02
7.320000000000000000e+02	3.741866284882581795e+02
7.330000000000000000e+02	3.652572182888455927e+02
7.340000000000000000e+02	3.564892568949059637e+02
7.350000000000000000e+02	3.478813780156147004e+02
7.360000000000000000e+02	3.394321795397193000e+02
7.370000000000000000e+02	3.311402252028325961e+02
7.380000000000000000e+02	3.230040462387797788e+02
7.390000000000000000e+02	3.150221430139721974e+02
7.400000000000000000e+02	3.071929866438180738e+02
7.410000000000000000e+02	2.995150205902262428e+02
7.420000000000000000e+02	2.919866622392957538e+02
7.430000000000000000e+02	2.846063044583344777e+02
7.440000000000000000e+02	2.773723171313826015e+02
7.450000000000000000e+02	2.702830486724688512e+02
7.460000000000000000e+02	2.633368275158591132e+02
7.470000000000000000e+02	2.565319635826075455e+02
7.480000000000000000e+02	2.498667497227562535e+02
7.490000000000000000e+02	2.433394631325725470e+02
7.500000000000000000e+02	2.369483667462523897e+02
7.510000000000000000e+02	2.306917106015629315e+02
7.520000000000000000e+02	2.245677331789298989e+02
7.530000000000000000e+02	2.185746627135206950e+02
7.540000000000000000e+02	2.127107184799138508e+02
7.550000000000000000e+02	2.069741120489752007e+02
7.560000000000000000e+02	2.013630485166112862e+02
7.570000000000000000e+02	1.958757277040973577e+02
7.580000000000000000e+02	1.905103453297172962e+02
7.590000000000000000e+02	1.852650941514924057e+02
7.600000000000000000e+02	1.801381650808039581e+02
7.610000000000000000e+02	1.751277482667539118e+02
7.620000000000000000e+02	1.702320341511405672e+02
7.630000000000000000e+02	1.654492144939570721e+02
7.640000000000000000e+02	1.607774833693558207e+02
7.650000000000000000e+02	1.562150381320486758e+02
7.660000000000000000e+02	1.517600803541485277e+02
7.670000000000000000e+02	1.474108167324813508e+02
7.680000000000000000e+02	1.431654599664316834e+02
7.690000000000000000e+02	1.390222296064096668e+02
7.700000000000000000e+02	1.349793528730532159e+02
7.710000000000000000e+02	1.310350654473094210e+02
7.720000000000000000e+02	1.271876122315579209e+02
7.730000000000000000e+02	1.234352480819703572e+02
7.740000000000000000e+02	1.197762385123159277e+02
7.750000000000000000e+02	1.162088603694509743e+02
7.760000000000000000e+02	1.127314024807493240e+02
7.770000000000000000e+02	1.093421662737498963e+02
7.780000000000000000e+02	1.060394663683205323e+02
7.790000000000000000e+02	1.028216311416514088e+02
7.800000000000000000e+02	9.968700326641277343e+01
7.810000000000000000e+02	9.663394022242718506e+01
7.820000000000000000e+02	9.366081478222046997e+01
7.830000000000000000e+02	9.076601547083443222e+01
7.840000000000000000e+02	8.794794700029437706e+01
7.850000000000000000e+02	8.520503067914002315e+01
7.860000000000000000e+02	8.253570479744107047e+01
7.870000000000000000e+02	7.993842498772741578e+01
7.880000000000000000e+02	7.741166456227821868e+01
7.890000000000000000e+02	7.495391482722087062e+01
7.900000000000000000e+02	7.256368537390088136e+01
7.910000000000000000e+02	7.023950434799293419e+01
7.920000000000000000e+02	6.797991869682837773e+01
7.930000000000000000e+02	6.578349439542355981e+01
7.940000000000000000e+02	6.364881665169654212e+01
7.950000000000000000e+02	6.157449009136748685e+01
7.960000000000000000e+02	5.955913892304047152e+01
7.970000000000000000e+02	5.760140708396841802e+01
7.980000000000000000e+02	5.569995836700674374e+01
7.990000000000000000e+02	5.385347652926227369e+01
8.000000000000000000e+02	5.206066538294642498e+01
8.010000000000000000e+02	5.032024886894272697e+01
8.020000000000000000e+02	4.863097111359815017e+01
8.030000000000000000e+02	4.699159646924889699e+01
8.040000000000000000e+02	4.540090953898918258e+01
8.050000000000000000e+02	4.385771518619129239e+01
8.060000000000000000e+02	4.236083852928207705e+01
8.070000000000000000e+02	4.090912492228028441e+01
8.080000000000000000e+02	3.950143992159457440e+01
8.090000000000000000e+02	3.813666923957981680e+01
8.100000000000000000e+02	3.681371868534514391e+01
8.110000000000000000e+02	3.553151409330250488e+01
8.120000000000000000e+02	3.428900123994090166e+01
8.130000000000000000e+02	3.308514574930529051e+01
8.140000000000000000e+02	3.191893298765437947e+01
8.150000000000000000e+02	3.078936794776570807e+01
8.160000000000000000e+02	2.969547512335006090e+01
8.170000000000000000e+02	2.863629837403111011e+01
8.180000000000000000e+02	2.761090078133938164e+01
8.190000000000000000e+02	2.661836449616259159e+01
8.200000000000000000e+02	2.565779057808734365e+01
8.210000000000000000e+02	2.472829882705946858e+01
8.220000000000000000e+02	2.382902760778284801e+01
8.230000000000000000e+02	2.295913366726857063e+01
8.240000000000000000e+02	2.211779194593806253e+01
8.250000000000000000e+02	2.130419538267579327e+01
8.260000000000000000e+02	2.051755471421887478e+01
8.270000000000000000e+02	1.975709826926178536e+01
8.280000000000000000e+02	1.902207175764654679e+01
8.290000000000000000e+02	1.831173805499943086e+01
8.300000000000000000e+02	1.762537698316652879e+01
8.310000000000000000e+02	1.696228508679192970e+01
8.320000000000000000e+02	1.632177540637272273e+01
8.330000000000000000e+02	1.570317724811653193e+01
8.340000000000000000e+02	1.510583595091805087e+01
8.350000000000000000e+02	1.452911265076186176e+01
8.360000000000000000e+02	1.397238404285011981e+01
8.370000000000000000e+02	1.343504214174410016e+01
8.380000000000000000e+02	1.291649403980004784e+01
8.390000000000000000e+02	1.241616166417045619e+01
8.400000000000000000e+02	1.193348153263293199e+01
8.410000000000000000e+02	1.146790450850019738e+01
8.420000000000000000e+02	1.101889555485525563e+01
8.430000000000000000e+02	1.058593348834762082e+01
8.440000000000000000e+02	1.016851073277733519e+01
8.450000000000000000e+02	9.766133072684951344e+00
8.460000000000000000e+02	9.378319407157315268e+00
8.470000000000000000e+02	9.004601504050015137e+00
8.480000000000000000e+02	8.644523754819568140e+00
8.490000000000000000e+02	8.297642930149757845e+00
8.500000000000000000e+02	7.963527936548664421e+00
8.510000000000000000e+02	7.641759574084763251e+00
8.520000000000000000e+02	7.331930295422564470e+00
8.530000000000000000e+02	7.033643966310796358e+00
8.540000000000000000e+02	6.746515627668134840e+00
8.550000000000000000e+02	6.470171259404281727e+00
8.560000000000000000e+02	6.204247546106950395e+00
8.570000000000000000e+02	5.948391644717736959e+00
8.580000000000000000e+02	5.702260954313392638e+00
8.590000000000000000e+02	5.465522888101697951e+00
8.600000000000000000e+02	5.237854647734666358e+00
8.610000000000000000e+02	5.018943000035285706e+00
8.620000000000000000e+02	4.808484056227460002e+00
8.630000000000000000e+02	4.606183053752698875e+00
8.640000000000000000e+02	4.411754140751149578e+00
8.650000000000000000e+02	4.224920163278399698e+00
8.660000000000000000e+02	4.045412455324139955e+00
8.670000000000000000e+02	3.872970631692791432e+00
8.680000000000000000e+02	3.707342383801213614e+00
8.690000000000000000e+02	3.548283278443078448e+00
8.700000000000000000e+02	3.395556559564623988e+00
8.710000000000000000e+02	3.248932953091567821e+00
8.720000000000000000e+02	3.108190474842104312e+00
8.730000000000000000e+02	2.973114241556572335e+00
8.740000000000000000e+02	2.843496285069788687e+00
8.750000000000000000e+02	2.719135369647839973e+00
8.760000000000000000e+02	2.599836812507145822e+00
8.770000000000000000e+02	2.485412307529510478e+00
8.780000000000000000e+02	2.375679752183261773e+00
8.790000000000000000e+02	2.270463077656842632e+00
8.800000000000000000e+02	2.169592082207841166e+00
8.810000000000000000e+02	2.072902267727084968e+00
8.820000000000000000e+02	1.980234679514239593e+00
8.830000000000000000e+02	1.891435749258380206e+00
8.840000000000000000e+02	1.806357141214034012e+00
8.850000000000000000e+02	1.724855601560600249e+00
8.860000000000000000e+02	1.646792810930217454e+00
8.870000000000000000e+02	1.572035240086910646e+00
8.880000000000000000e+02	1.500454008737341693e+00
8.890000000000000000e+02	1.431924747451339908e+00
8.900000000000000000e+02	1.366327462668301740e+00
8.910000000000000000e+02	1.303546404763539890e+00
8.920000000000000000e+02	1.243469939146855552e+00
8.930000000000000000e+02	1.185990420363850495e+00
8.940000000000000000e+02	1.131004069168871640e+00
8.950000000000000000e+02	1.078410852536993758e+00
8.960000000000000000e+02	1.028114366581002859e+00
8.970000000000000000e+02	9.800217223380789378e-01
8.980000000000000000e+02	9.340434343896517611e-01
8.990000000000000000e+02	8.900933122768051042e-01
9.000000000000000000e+02	8.480883546726066813e-01
9.010000000000000000e+02	8.079486462717934137e-01
9.020000000000000000e+02	7.695972573574531017e-01
9.030000000000000000e+02	7.329601460035423122e-01
9.040000000000000000e+02	6.979660628714772219e-01
9.050000000000000000e+02	6.645464585583953365e-01
9.060000000000000000e+02	6.326353934542098267e-01
9.070000000000000000e+02	6.021694500641128212e-01
9.080000000000000000e+02	5.730876477528542567e-01
9.090000000000000000e+02	5.453313598667802742e-01
9.100000000000000000e+02	5.188442331894128623e-01
9.110000000000000000e+02	4.935721096861466206e-01
9.120000000000000000e+02	4.694629504935568520e-01
9.130000000000000000e+02	4.464667621087269334e-01
9.140000000000000000e+02	4.245355247339893112e-01
9.150000000000000000e+02	4.036231227325659532e-01
9.160000000000000000e+02	3.836852771506111259e-01
9.170000000000000000e+02	3.646794802613705366e-01
9.180000000000000000e+02	3.465649320873055994e-01
9.190000000000000000e+02	3.293024788562583516e-01
9.200000000000000000e+02	3.128545533480281970e-01
9.210000000000000000e+02	2.971851170879690196e-01
9.220000000000000000e+02	2.822596043446048975e-01
9.230000000000000000e+02	2.680448678885907765e-01
9.240000000000000000e+02	2.545091264707401435e-01
9.250000000000000000e+02	2.416219139772894375e-01
9.260000000000000000e+02	2.293540302209736703e-01
9.270000000000000000e+02	2.176774933270017864e-01
9.280000000000000000e+02	2.065654936734849789e-01
9.290000000000000000e+02	1.959923493463992250e-01
9.300000000000000000e+02	1.859334630696961588e-01
9.310000000000000000e+02	1.763652805717163541e-01
9.320000000000000000e+02	1.672652503496485921e-01
9.330000000000000000e+02	1.586117847943308290e-01
9.340000000000000000e+02	1.503842226383054759e-01
9.350000000000000000e+02	1.425627926906338216e-01
9.360000000000000000e+02	1.351285788225951578e-01
9.370000000000000000e+02	1.280634861690132520e-01
9.380000000000000000e+02	1.213502085105936518e-01
9.390000000000000000e+02	1.149721968032818564e-01
9.400000000000000000e+02	1.089136288213021497e-01
9.410000000000000000e+02	1.031593798811786117e-01
9.420000000000000000e+02	9.769499461469428880e-02
9.430000000000000000e+02	9.250665975938858476e-02
9.440000000000000000e+02	8.758117793585232236e-02
9.450000000000000000e+02	8.290594238172857566e-02
9.460000000000000000e+02	7.846891261298120923e-02
9.470000000000000000e+02	7.425859098364058497e-02
9.480000000000000000e+02	7.026400011588981864e-02
9.490000000000000000e+02	6.647466117299448418e-02
9.500000000000000000e+02	6.288057294822446686e-02
9.510000000000000000e+02	5.947219174355242166e-02
9.520000000000000000e+02	5.624041201254861844e-02
9.530000000000000000e+02	5.317654774251604627e-02
9.540000000000000000e+02	5.027231455153508000e-02
9.550000000000000000e+02	4.751981247670074987e-02
9.560000000000000000e+02	4.491150943044466826e-02
9.570000000000000000e+02	4.244022530243602570e-02
9.580000000000000000e+02	4.009911668514956617e-02
9.590000000000000000e+02	3.788166220177546090e-02
9.600000000000000000e+02	3.578164841572390592e-02
9.610000000000000000e+02	3.379315630154639677e-02
9.620000000000000000e+02	3.191054825765928665e-02
9.630000000000000000e+02	3.012845564180291827e-02
9.640000000000000000e+02	2.844176681071710136e-02
9.650000000000000000e+02	2.684561564604472442e-02
9.660000000000000000e+02	2.533537054900033419e-02
9.670000000000000000e+02	2.390662388685505652e-02
9.680000000000000000e+02	2.255518187479403983e-02
9.690000000000000000e+02	2.127705487719768612e-02
9.700000000000000000e+02	2.006844811288315336e-02
9.710000000000000000e+02	1.892575274931731361e-02
9.720000000000000000e+02	1.784553737127905770e-02
9.730000000000000000e+02	1.682453980990152378e-02
9.740000000000000000e+02	1.585965931847251389e-02
9.750000000000000000e+02	1.494794908180502140e-02
9.760000000000000000e+02	1.408660904641541312e-02
9.770000000000000000e+02	1.327297905916199200e-02
9.780000000000000000e+02	1.250453230240174129e-02
9.790000000000000000e+02	1.177886901411902450e-02
9.800000000000000000e+02	1.109371048186459825e-02
9.810000000000000000e+02	1.044689329972053882e-02
9.820000000000000000e+02	9.836363877871538361e-03
9.830000000000000000e+02	9.260173194721089962e-03
9.840000000000000000e+02	8.716471781837235519e-03
9.850000000000000000e+02	8.203504932351344051e-03
9.860000000000000000e+02	7.719608123761627014e-03
9.870000000000000000e+02	7.263202646413255241e-03
9.880000000000000000e+02	6.832791429237071619e-03
9.890000000000000000e+02	6.426955054631391245e-03
9.900000000000000000e+02	6.044347954664101505e-03
9.910000000000000000e+02	5.683694781057537643e-03
9.920000000000000000e+02	5.343786941694078294e-03
9.930000000000000000e+02	5.023479296649173940e-03
9.940000000000000000e+02	4.721687007018201578e-03
9.950000000000000000e+02	4.437382530055294927e-03
9.960000000000000000e+02	4.169592754386846137e-03
9.970000000000000000e+02	3.917396269298851520e-03
9.980000000000000000e+02	3.679920762326218796e-03
9.990000000000000000e+02	3.456340539594135453e-03
1.000000000000000000e+03	3.245874163576224335e-03
