4.410000000000000000e+02	1.290003389530973202e-14
4.420000000000000000e+02	4.433050764621580329e-14
4.430000000000000000e+02	1.495815725848658670e-13
4.440000000000000000e+02	4.955837092167225596e-13
4.450000000000000000e+02	1.612202112612061308e-12
4.460000000000000000e+02	5.149742181749410369e-12
4.470000000000000000e+02	1.615158044915885424e-11
4.480000000000000000e+02	4.974026558903897714e-11
4.490000000000000000e+02	1.504058442520459707e-10
4.500000000000000000e+02	4.465651839031635692e-10
4.510000000000000000e+02	1.301872779226944245e-09
4.520000000000000000e+02	3.726625653440734522e-09
4.530000000000000000e+02	1.047433666881357184e-08
4.540000000000000000e+02	2.890685378275884793e-08
4.550000000000000000e+02	7.833189973967107829e-08
4.560000000000000000e+02	2.084203063904606765e-07
4.570000000000000000e+02	5.445088434488947803e-07
4.580000000000000000e+02	1.396797284776624401e-06
4.590000000000000000e+02	3.518239203824908927e-06
4.600000000000000000e+02	8.701234680060854478e-06
4.610000000000000000e+02	2.113002143209843534e-05
4.620000000000000000e+02	5.038282672978062186e-05
4.630000000000000000e+02	1.179583419294022570e-04
4.640000000000000000e+02	2.711679298384896261e-04
4.650000000000000000e+02	6.120847072100804717e-04
4.660000000000000000e+02	1.356588930939982155e-03
4.670000000000000000e+02	2.952218832539205053e-03
4.680000000000000000e+02	6.308300317401189725e-03
4.690000000000000000e+02	1.323548047179968525e-02
4.700000000000000000e+02	2.726657567562297893e-02
4.710000000000000000e+02	5.515501724491984892e-02
4.720000000000000000e+02	1.095476301070458097e-01
4.730000000000000000e+02	2.136409427128755090e-01
4.740000000000000000e+02	4.091000396508365777e-01
4.750000000000000000e+02	7.691979081091452342e-01
4.760000000000000000e+02	1.420071476575416103e+00
4.770000000000000000e+02	2.574221131810615404e+00
4.780000000000000000e+02	4.581893969516266374e+00
4.790000000000000000e+02	8.007699284739899781e+00
4.800000000000000000e+02	1.374149592110439499e+01
4.810000000000000000e+02	2.315388158843549249e+01
4.820000000000000000e+02	3.830691160518421867e+01
4.830000000000000000e+02	6.222916994395366430e+01
4.840000000000000000e+02	9.926003262988565723e+01
4.850000000000000000e+02	1.554598900171673961e+02
4.860000000000000000e+02	2.390704151002578328e+02
4.870000000000000000e+02	3.609913972286353214e+02
4.880000000000000000e+02	5.352188593335946507e+02
4.890000000000000000e+02	7.791651387334098899e+02
4.900000000000000000e+02	1.113758992909735298e+03
4.910000000000000000e+02	1.563208175521211388e+03
4.920000000000000000e+02	2.154306761669152820e+03
4.930000000000000000e+02	2.915200950742375881e+03
4.940000000000000000e+02	3.873633019034871268e+03
4.950000000000000000e+02	5.054988687350518376e+03
4.960000000000000000e+02	6.481299987821415925e+03
4.970000000000000000e+02	8.174330626319452676e+03
4.980000000000000000e+02	1.016966817314832406e+04
4.990000000000000000e+02	1.255365691960206277e+04
5.000000000000000000e+02	1.553580119978793300e+04
5.010000000000000000e+02	1.955370904043273185e+04
5.020000000000000000e+02	2.536237136972152439e+04
5.030000000000000000e+02	3.399247308178138337e+04
5.040000000000000000e+02	4.643058006518232287e+04
5.050000000000000000e+02	6.297211469837565528e+04
5.060000000000000000e+02	8.246392509646463441e+04
5.070000000000000000e+02	1.019427972369513154e+05
5.080000000000000000e+02	1.171817521666026587e+05
5.090000000000000000e+02	1.241809163307888375e+05
5.100000000000000000e+02	1.209197556246241729e+05
5.110000000000000000e+02	1.083252775075589889e+05
5.120000000000000000e+02	8.982445463920824113e+04
5.130000000000000000e+02	6.977631105218987796e+04
5.140000000000000000e+02	5.176323369169127545e+04
5.150000000000000000e+02	3.764227475260046776e+04
5.160000000000000000e+02	2.759936410900958072e+04
5.170000000000000000e+02	2.082336990085762227e+04
5.180000000000000000e+02	1.624035937195818042e+04
5.190000000000000000e+02	1.296650180982244274e+04
5.200000000000000000e+02	1.044235952472605823e+04
5.210000000000000000e+02	8.377826378927102269e+03
5.220000000000000000e+02	6.644467572883455432e+03
5.230000000000000000e+02	5.188737077516891077e+03
5.240000000000000000e+02	3.982661713119624892e+03
5.250000000000000000e+02	3.002601060358206269e+03
5.260000000000000000e+02	2.222953308326136266e+03
5.270000000000000000e+02	1.615990859580539791e+03
5.280000000000000000e+02	1.153490606034378516e+03
5.290000000000000000e+02	8.084505396672903998e+02
5.300000000000000000e+02	5.563608073464786230e+02
5.310000000000000000e+02	3.759440068797321146e+02
5.320000000000000000e+02	2.494326752519959314e+02
5.330000000000000000e+02	1.624976411981062085e+02
5.340000000000000000e+02	1.039451702062139589e+02
5.350000000000000000e+02	6.528675833468626877e+01
5.360000000000000000e+02	4.026330609213164280e+01
5.370000000000000000e+02	2.438132463793316873e+01
5.380000000000000000e+02	1.449668487890676261e+01
5.390000000000000000e+02	8.463376025927903612e+00
5.400000000000000000e+02	4.851567881176013231e+00
5.410000000000000000e+02	2.730763721158048440e+00
5.420000000000000000e+02	1.509209998569218891e+00
5.430000000000000000e+02	8.189903035559561451e-01
5.440000000000000000e+02	4.363865766446626826e-01
5.450000000000000000e+02	2.283113716669321891e-01
5.460000000000000000e+02	1.172862876851909208e-01
5.470000000000000000e+02	5.916031454138843265e-02
5.480000000000000000e+02	2.930064936653430097e-02
5.490000000000000000e+02	1.424910390403406023e-02
5.500000000000000000e+02	6.803954461952655026e-03
5.510000000000000000e+02	3.190059475746133758e-03
5.520000000000000000e+02	1.468587065975540283e-03
5.530000000000000000e+02	6.638411270420747521e-04
5.540000000000000000e+02	2.946402996879514684e-04
5.550000000000000000e+02	1.284055150848251083e-04
5.560000000000000000e+02	5.494633681500968547e-05
5.570000000000000000e+02	2.308646015323880457e-05
5.580000000000000000e+02	9.524440833160494979e-06
5.590000000000000000e+02	3.858203812420711553e-06
5.600000000000000000e+02	1.534597125474140182e-06
5.610000000000000000e+02	5.993315381887976894e-07
5.620000000000000000e+02	2.298282553592534176e-07
5.630000000000000000e+02	8.653728103550972831e-08
5.640000000000000000e+02	3.199385764510144992e-08
5.650000000000000000e+02	1.161431250694960026e-08
5.660000000000000000e+02	4.139843691566445309e-09
5.670000000000000000e+02	1.448898347140742806e-09
5.680000000000000000e+02	4.979152491854410352e-10
5.690000000000000000e+02	1.680105193839412248e-10
5.700000000000000000e+02	5.566485197568946652e-11
5.710000000000000000e+02	1.810877945885674964e-11
5.720000000000000000e+02	5.784433567387014419e-12
5.730000000000000000e+02	1.814245408777921752e-12
5.740000000000000000e+02	5.587207037146331301e-13
5.750000000000000000e+02	1.689495477702498100e-13
5.760000000000000000e+02	5.016292352864283107e-14
5.770000000000000000e+02	1.462420217430217056e-14
5.780000000000000000e+02	4.186249052186675796e-15
5.790000000000000000e+02	1.176634231381910539e-15
5.800000000000000000e+02	3.247292673973082931e-16
5.810000000000000000e+02	8.799640369959013081e-17
5.820000000000000000e+02	2.341380252394644950e-17
5.830000000000000000e+02	6.117056836379950485e-18
5.840000000000000000e+02	1.569193922131445038e-18
5.850000000000000000e+02	3.952521635575467751e-19
5.860000000000000000e+02	9.775420123772377199e-20
5.870000000000000000e+02	2.373887555954190971e-20
5.880000000000000000e+02	5.660416565597975681e-21
5.890000000000000000e+02	1.325257222249771809e-21
5.900000000000000000e+02	3.046600457944733508e-22
5.910000000000000000e+02	6.876926194005431823e-23
5.920000000000000000e+02	1.524181761846375519e-23
5.930000000000000000e+02	3.316978792732378607e-24
5.940000000000000000e+02	7.087811614998622312e-25
5.950000000000000000e+02	1.487117122913379011e-25
5.960000000000000000e+02	3.063668133427784317e-26
5.970000000000000000e+02	6.197289744566082488e-27
5.980000000000000000e+02	1.230907507194369406e-27
5.990000000000000000e+02	2.400560061598118587e-28
6.000000000000000000e+02	4.596881085816389028e-29
6.010000000000000000e+02	8.643258447145901774e-30
6.020000000000000000e+02	1.595714774632123481e-30
6.030000000000000000e+02	2.892654537265960471e-31
6.040000000000000000e+02	5.148745327068479189e-32
6.050000000000000000e+02	8.998493112151147300e-33
6.060000000000000000e+02	1.544193440430065960e-33
6.070000000000000000e+02	2.601939265081807657e-34
6.080000000000000000e+02	4.304831367865202711e-35
6.090000000000000000e+02	6.993243803819689588e-36
6.100000000000000000e+02	1.115487561056552977e-36
6.110000000000000000e+02	1.747086191965693141e-37
6.120000000000000000e+02	2.686751300599383920e-38
6.130000000000000000e+02	4.056991905731319721e-39
6.140000000000000000e+02	6.015120773037525571e-40
6.150000000000000000e+02	8.756853799817793057e-41
6.160000000000000000e+02	1.251743610776006839e-41
6.170000000000000000e+02	1.756896609042447498e-42
6.180000000000000000e+02	2.421255180046539376e-43
6.190000000000000000e+02	3.276411624169193950e-44
6.200000000000000000e+02	4.353312964959068002e-45
6.210000000000000000e+02	5.679431415131475344e-46
6.220000000000000000e+02	7.275341195260964354e-47
6.230000000000000000e+02	9.150933693270979380e-48
6.240000000000000000e+02	1.130162748973702111e-48
6.250000000000000000e+02	1.370503362764173343e-49
6.260000000000000000e+02	1.631859482441142509e-50
6.270000000000000000e+02	1.907870752322988442e-51
6.280000000000000000e+02	2.190174298117163356e-52
6.290000000000000000e+02	2.468720611369353805e-53
6.300000000000000000e+02	2.732302281499994836e-54
6.310000000000000000e+02	2.969265850517569998e-55
6.320000000000000000e+02	3.168348600458619829e-56
6.330000000000000000e+02	3.319558846296352344e-57
6.340000000000000000e+02	3.415004823777127441e-58
6.350000000000000000e+02	3.449576718176679443e-59
6.360000000000000000e+02	3.421399846706113726e-60
6.370000000000000000e+02	3.332003063909985334e-61
6.380000000000000000e+02	3.186181337895525548e-62
6.390000000000000000e+02	2.991569687107288595e-63
6.400000000000000000e+02	2.757981161270848299e-64
6.410000000000000000e+02	2.496588718408896637e-65
6.420000000000000000e+02	2.219045713374360835e-66
6.430000000000000000e+02	1.936640595691292800e-67
6.440000000000000000e+02	1.659569140133543972e-68
6.450000000000000000e+02	1.396385101918379711e-69
6.460000000000000000e+02	1.153662031853056288e-70
6.470000000000000000e+02	9.358700087133354285e-72
6.480000000000000000e+02	7.454456709239138519e-73
6.490000000000000000e+02	5.830153657275515256e-74
6.500000000000000000e+02	4.477210792709579168e-75
6.510000000000000000e+02	3.375970320718274050e-76
6.520000000000000000e+02	2.499500539633537996e-77
6.530000000000000000e+02	1.817068864147365487e-78
6.540000000000000000e+02	1.297039121528599688e-79
6.550000000000000000e+02	9.090720416930373321e-81
6.560000000000000000e+02	6.256148719278709043e-82
6.570000000000000000e+02	4.227458605936781439e-83
6.580000000000000000e+02	2.804885907728678337e-84
6.590000000000000000e+02	1.827319859099537386e-85
6.600000000000000000e+02	1.168900339313144193e-86
6.610000000000000000e+02	7.341823374118740488e-88
6.620000000000000000e+02	4.527869660866049941e-89
6.630000000000000000e+02	2.741873652071571889e-90
6.640000000000000000e+02	1.630288618701300778e-91
6.650000000000000000e+02	9.517986666660819205e-93
6.660000000000000000e+02	5.456186722969737670e-94
6.670000000000000000e+02	3.071120760114878379e-95
6.680000000000000000e+02	1.697337084362563732e-96
6.690000000000000000e+02	9.210916456987581682e-98
6.700000000000000000e+02	4.907961230816588731e-99
6.710000000000000000e+02	2.567810324024880578e-100
6.720000000000000000e+02	1.319132118475563708e-101
6.730000000000000000e+02	6.653914036769350435e-103
6.740000000000000000e+02	3.295562966459916266e-104
6.750000000000000000e+02	1.602675429629681732e-105
6.760000000000000000e+02	7.652883125272222385e-107
6.770000000000000000e+02	3.588129589959399048e-108
6.780000000000000000e+02	1.651865548782365356e-109
6.790000000000000000e+02	7.466976912144655289e-111
6.800000000000000000e+02	3.314198056495208660e-112
6.810000000000000000e+02	1.444360640090008129e-113
6.820000000000000000e+02	6.180681563832241254e-115
6.830000000000000000e+02	2.596932308502178501e-116
6.840000000000000000e+02	1.071392068883340874e-117
6.850000000000000000e+02	4.340100255377785924e-119
6.860000000000000000e+02	1.726293492105752195e-120
6.870000000000000000e+02	6.742066655095972694e-122
6.880000000000000000e+02	2.585443117823840276e-123
6.890000000000000000e+02	9.735101183091362768e-125
6.900000000000000000e+02	3.599229081096459499e-126
6.910000000000000000e+02	1.306598169920543027e-127
6.920000000000000000e+02	4.657342091009722125e-129
6.930000000000000000e+02	1.630038151055599107e-130
6.940000000000000000e+02	5.601714059877919169e-132
6.950000000000000000e+02	1.890199485673470504e-133
6.960000000000000000e+02	6.262646262540568373e-135
6.970000000000000000e+02	2.037378223850784490e-136
6.980000000000000000e+02	6.508021440905895443e-138
6.990000000000000000e+02	2.041220057329677302e-139
7.000000000000000000e+02	6.286287163880497801e-141
7.010000000000000000e+02	1.900912568266306680e-142
7.020000000000000000e+02	5.644085772554355102e-144
7.030000000000000000e+02	1.645464833011790369e-145
7.040000000000000000e+02	4.710284528410709970e-147
7.050000000000000000e+02	1.323942780221201074e-148
7.060000000000000000e+02	3.653884595240395385e-150
7.070000000000000000e+02	9.901567995091339267e-152
7.080000000000000000e+02	2.634611959172089343e-153
7.090000000000000000e+02	6.883239493372184571e-155
7.100000000000000000e+02	1.765763922251237470e-156
7.110000000000000000e+02	4.447704594160556875e-158
7.120000000000000000e+02	1.100025536739809079e-159
7.130000000000000000e+02	2.671364416905344880e-161
7.140000000000000000e+02	6.369818286155561546e-163
7.150000000000000000e+02	1.491366854420910345e-164
7.160000000000000000e+02	3.428510367492111192e-166
7.170000000000000000e+02	7.739091553868796012e-168
7.180000000000000000e+02	1.715291907676550193e-169
7.190000000000000000e+02	3.732928142485789018e-171
7.200000000000000000e+02	7.976727541074406246e-173
7.210000000000000000e+02	1.673645304491924608e-174
7.220000000000000000e+02	3.447987046356061262e-176
7.230000000000000000e+02	6.974793669128460402e-178
7.240000000000000000e+02	1.385353610024244607e-179
7.250000000000000000e+02	2.701801595333271992e-181
7.260000000000000000e+02	5.173801992992777020e-183
7.270000000000000000e+02	9.728137283404085355e-185
7.280000000000000000e+02	1.796028048099704491e-186
7.290000000000000000e+02	3.255817667581621730e-188
7.300000000000000000e+02	5.795228619156133486e-190
7.310000000000000000e+02	1.012848777296599230e-191
7.320000000000000000e+02	1.738129697385240002e-193
7.330000000000000000e+02	2.928756656210889681e-195
7.340000000000000000e+02	4.845604169014813002e-197
7.350000000000000000e+02	7.871837439557941458e-199
7.360000000000000000e+02	1.255647789833273446e-200
7.370000000000000000e+02	1.966631962026295578e-202
7.380000000000000000e+02	3.024418504909668685e-204
7.390000000000000000e+02	4.566928550281102017e-206
7.400000000000000000e+02	6.771269270322789630e-208
7.410000000000000000e+02	9.857788338306417826e-210
7.420000000000000000e+02	1.409134442912380435e-211
7.430000000000000000e+02	1.977829765915715196e-213
7.440000000000000000e+02	2.725768221147277903e-215
7.450000000000000000e+02	3.688522832705094316e-217
7.460000000000000000e+02	4.900942027952778392e-219
7.470000000000000000e+02	6.393964070905526491e-221
7.480000000000000000e+02	8.190762903511813589e-223
7.490000000000000000e+02	1.030248651535630648e-224
7.500000000000000000e+02	1.272398919995726941e-226
7.510000000000000000e+02	1.543007602329644503e-228
7.520000000000000000e+02	1.837284354480579464e-230
7.530000000000000000e+02	2.148068985724057106e-232
7.540000000000000000e+02	2.465946269996238031e-234
7.550000000000000000e+02	2.779601462155089962e-236
7.560000000000000000e+02	3.076415496200935863e-238
7.570000000000000000e+02	3.343266418321261303e-240
7.580000000000000000e+02	3.567471553318295782e-242
7.590000000000000000e+02	3.737778731250115819e-244
7.600000000000000000e+02	3.845299709360459981e-246
7.610000000000000000e+02	3.884278301295813953e-248
7.620000000000000000e+02	3.852600878363903840e-250
7.630000000000000000e+02	3.751986238875635089e-252
7.640000000000000000e+02	3.587831110356227421e-254
7.650000000000000000e+02	3.368730610109885762e-256
7.660000000000000000e+02	3.105732960971768678e-258
7.670000000000000000e+02	2.811418359558984025e-260
7.680000000000000000e+02	2.498908641809825663e-262
7.690000000000000000e+02	2.180915395359951371e-264
7.700000000000000000e+02	1.868920356771743997e-266
7.710000000000000000e+02	1.572556679835379419e-268
7.720000000000000000e+02	1.299227959058207636e-270
7.730000000000000000e+02	1.053969261435550357e-272
7.740000000000000000e+02	8.395258423193089181e-275
7.750000000000000000e+02	6.566043116174865602e-277
7.760000000000000000e+02	5.042395751939807453e-279
7.770000000000000000e+02	3.802188668687188353e-281
7.780000000000000000e+02	2.815100702565412593e-283
7.790000000000000000e+02	2.046528250514001019e-285
7.800000000000000000e+02	1.460848200577686628e-287
7.810000000000000000e+02	1.023896298005179628e-289
7.820000000000000000e+02	7.046450290991642081e-292
7.830000000000000000e+02	4.761550001997794212e-294
7.840000000000000000e+02	3.159292547411920899e-296
7.850000000000000000e+02	2.058234595446694633e-298
7.860000000000000000e+02	1.316629074895240126e-300
7.870000000000000000e+02	8.269810270601392048e-303
7.880000000000000000e+02	5.100246746201626470e-305
7.890000000000000000e+02	3.088519629983033058e-307
7.900000000000000000e+02	1.836424514085632471e-309
7.910000000000000000e+02	1.072159344618629561e-311
7.920000000000000000e+02	6.146237833682591719e-314
7.930000000000000000e+02	3.459748044093079780e-316
7.940000000000000000e+02	1.970936555702817539e-318
7.950000000000000000e+02	0.000000000000000000e+00
7.960000000000000000e+02	0.000000000000000000e+00
7.970000000000000000e+02	0.000000000000000000e+00
7.980000000000000000e+02	0.000000000000000000e+00
7.990000000000000000e+02	0.000000000000000000e+00
8.000000000000000000e+02	0.000000000000000000e+00
8.010000000000000000e+02	0.000000000000000000e+00
8.020000000000000000e+02	0.000000000000000000e+00
8.030000000000000000e+02	0.000000000000000000e+00
8.040000000000000000e+02	0.000000000000000000e+00
8.050000000000000000e+02	0.000000000000000000e+00
8.060000000000000000e+02	0.000000000000000000e+00
8.070000000000000000e+02	0.000000000000000000e+00
8.080000000000000000e+02	0.000000000000000000e+00
8.090000000000000000e+02	0.000000000000000000e+00
8.100000000000000000e+02	0.000000000000000000e+00
8.110000000000000000e+02	0.000000000000000000e+00
8.120000000000000000e+02	0.000000000000000000e+00
8.130000000000000000e+02	0.000000000000000000e+00
8.140000000000000000e+02	0.000000000000000000e+00
8.150000000000000000e+02	0.000000000000000000e+00
8.160000000000000000e+02	0.000000000000000000e+00
8.170000000000000000e+02	0.000000000000000000e+00
8.180000000000000000e+02	0.000000000000000000e+00
8.190000000000000000e+02	0.000000000000000000e+00
8.200000000000000000e+02	0.000000000000000000e+00
8.210000000000000000e+02	0.000000000000000000e+00
8.220000000000000000e+02	0.000000000000000000e+00
8.230000000000000000e+02	0.000000000000000000e+00
8.240000000000000000e+02	0.000000000000000000e+00
8.250000000000000000e+02	0.000000000000000000e+00
8.260000000000000000e+02	0.000000000000000000e+00
8.270000000000000000e+02	0.000000000000000000e+00
8.280000000000000000e+02	0.000000000000000000e+00
8.290000000000000000e+02	0.000000000000000000e+00
8.300000000000000000e+02	0.000000000000000000e+00
8.310000000000000000e+02	0.000000000000000000e+00
8.320000000000000000e+02	0.000000000000000000e+00
8.330000000000000000e+02	0.000000000000000000e+00
8.340000000000000000e+02	0.000000000000000000e+00
8.350000000000000000e+02	0.000000000000000000e+00
8.360000000000000000e+02	0.000000000000000000e+00
8.370000000000000000e+02	0.000000000000000000e+00
8.380000000000000000e+02	0.000000000000000000e+00
8.390000000000000000e+02	0.000000000000000000e+00
8.400000000000000000e+02	0.000000000000000000e+00
8.410000000000000000e+02	0.000000000000000000e+00
8.420000000000000000e+02	0.000000000000000000e+00
8.430000000000000000e+02	0.000000000000000000e+00
8.440000000000000000e+02	0.000000000000000000e+00
8.450000000000000000e+02	0.000000000000000000e+00
8.460000000000000000e+02	0.000000000000000000e+00
8.470000000000000000e+02	0.000000000000000000e+00
8.480000000000000000e+02	0.000000000000000000e+00
8.490000000000000000e+02	0.000000000000000000e+00
8.500000000000000000e+02	0.000000000000000000e+00
8.510000000000000000e+02	0.000000000000000000e+00
8.520000000000000000e+02	0.000000000000000000e+00
8.530000000000000000e+02	0.000000000000000000e+00
8.540000000000000000e+02	0.000000000000000000e+00
8.550000000000000000e+02	0.000000000000000000e+00
8.560000000000000000e+02	0.000000000000000000e+00
8.570000000000000000e+02	0.000000000000000000e+00
8.580000000000000000e+02	0.000000000000000000e+00
8.590000000000000000e+02	0.000000000000000000e+00
8.600000000000000000e+02	0.000000000000000000e+00
8.610000000000000000e+02	0.000000000000000000e+00
8.620000000000000000e+02	0.000000000000000000e+00
8.630000000000000000e+02	0.000000000000000000e+00
8.640000000000000000e+02	0.000000000000000000e+00
8.650000000000000000e+02	0.000000000000000000e+00
8.660000000000000000e+02	0.000000000000000000e+00
8.670000000000000000e+02	0.000000000000000000e+00
8.680000000000000000e+02	0.000000000000000000e+00
8.690000000000000000e+02	0.000000000000000000e+00
8.700000000000000000e+02	0.000000000000000000e+00
8.710000000000000000e+02	0.000000000000000000e+00
8.720000000000000000e+02	0.000000000000000000e+00
8.730000000000000000e+02	0.000000000000000000e+00
8.740000000000000000e+02	0.000000000000000000e+00
8.750000000000000000e+02	0.000000000000000000e+00
8.760000000000000000e+02	0.000000000000000000e+00
8.770000000000000000e+02	0.000000000000000000e+00
8.780000000000000000e+02	0.000000000000000000e+00
8.790000000000000000e+02	0.000000000000000000e+00
8.800000000000000000e+02	0.000000000000000000e+00
8.810000000000000000e+02	0.000000000000000000e+00
8.820000000000000000e+02	0.000000000000000000e+00
8.830000000000000000e+02	0.000000000000000000e+00
8.840000000000000000e+02	0.000000000000000000e+00
8.850000000000000000e+02	0.000000000000000000e+00
8.860000000000000000e+02	0.000000000000000000e+00
8.870000000000000000e+02	0.000000000000000000e+00
8.880000000000000000e+02	0.000000000000000000e+00
8.890000000000000000e+02	0.000000000000000000e+00
8.900000000000000000e+02	0.000000000000000000e+00
8.910000000000000000e+02	0.000000000000000000e+00
8.920000000000000000e+02	0.000000000000000000e+00
8.930000000000000000e+02	0.000000000000000000e+00
8.940000000000000000e+02	0.000000000000000000e+00
8.950000000000000000e+02	0.000000000000000000e+00
8.960000000000000000e+02	0.000000000000000000e+00
8.970000000000000000e+02	0.000000000000000000e+00
8.980000000000000000e+02	0.000000000000000000e+00
8.990000000000000000e+02	0.000000000000000000e+00
9.000000000000000000e+02	0.000000000000000000e+00
9.010000000000000000e+02	0.000000000000000000e+00
9.020000000000000000e+02	0.000000000000000000e+00
9.030000000000000000e+02	0.000000000000000000e+00
9.040000000000000000e+02	0.000000000000000000e+00
9.050000000000000000e+02	0.000000000000000000e+00
9.060000000000000000e+02	0.000000000000000000e+00
9.070000000000000000e+02	0.000000000000000000e+00
9.080000000000000000e+02	0.000000000000000000e+00
9.090000000000000000e+02	0.000000000000000000e+00
9.100000000000000000e+02	0.000000000000000000e+00
9.110000000000000000e+02	0.000000000000000000e+00
9.120000000000000000e+02	0.000000000000000000e+00
9.130000000000000000e+02	0.000000000000000000e+00
9.140000000000000000e+02	0.000000000000000000e+00
9.150000000000000000e+02	0.000000000000000000e+00
9.160000000000000000e+02	0.000000000000000000e+00
9.170000000000000000e+02	0.000000000000000000e+00
9.180000000000000000e+02	0.000000000000000000e+00
9.190000000000000000e+02	0.000000000000000000e+00
9.200000000000000000e+02	0.000000000000000000e+00
9.210000000000000000e+02	0.000000000000000000e+00
9.220000000000000000e+02	0.000000000000000000e+00
9.230000000000000000e+02	0.000000000000000000e+00
9.240000000000000000e+02	0.000000000000000000e+00
9.250000000000000000e+02	0.000000000000000000e+00
9.260000000000000000e+02	0.000000000000000000e+00
9.270000000000000000e+02	0.000000000000000000e+00
9.280000000000000000e+02	0.000000000000000000e+00
9.290000000000000000e+02	0.000000000000000000e+00
9.300000000000000000e+02	0.000000000000000000e+00
9.310000000000000000e+02	0.000000000000000000e+00
9.320000000000000000e+02	0.000000000000000000e+00
9.330000000000000000e+02	0.000000000000000000e+00
9.340000000000000000e+02	0.000000000000000000e+00
9.350000000000000000e+02	0.000000000000000000e+00
9.360000000000000000e+02	0.000000000000000000e+00
9.370000000000000000e+02	0.000000000000000000e+00
9.380000000000000000e+02	0.000000000000000000e+00
9.390000000000000000e+02	0.000000000000000000e+00
9.400000000000000000e+02	0.000000000000000000e+00
9.410000000000000000e+02	0.000000000000000000e+00
9.420000000000000000e+02	0.000000000000000000e+00
9.430000000000000000e+02	0.000000000000000000e+00
9.440000000000000000e+02	0.000000000000000000e+00
9.450000000000000000e+02	0.000000000000000000e+00
9.460000000000000000e+02	0.000000000000000000e+00
9.470000000000000000e+02	0.000000000000000000e+00
9.480000000000000000e+02	0.000000000000000000e+00
9.490000000000000000e+02	0.000000000000000000e+00
9.500000000000000000e+02	0.000000000000000000e+00
9.510000000000000000e+02	0.000000000000000000e+00
9.520000000000000000e+02	0.000000000000000000e+00
9.530000000000000000e+02	0.000000000000000000e+00
9.540000000000000000e+02	0.000000000000000000e+00
9.550000000000000000e+02	0.000000000000000000e+00
9.560000000000000000e+02	0.000000000000000000e+00
9.570000000000000000e+02	0.000000000000000000e+00
9.580000000000000000e+02	0.000000000000000000e+00
9.590000000000000000e+02	0.000000000000000000e+00
9.600000000000000000e+02	0.000000000000000000e+00
9.610000000000000000e+02	0.000000000000000000e+00
9.620000000000000000e+02	0.000000000000000000e+00
9.630000000000000000e+02	0.000000000000000000e+00
9.640000000000000000e+02	0.000000000000000000e+00
9.650000000000000000e+02	0.000000000000000000e+00
9.660000000000000000e+02	0.000000000000000000e+00
9.670000000000000000e+02	0.000000000000000000e+00
9.680000000000000000e+02	0.000000000000000000e+00
9.690000000000000000e+02	0.000000000000000000e+00
9.700000000000000000e+02	0.000000000000000000e+00
9.710000000000000000e+02	0.000000000000000000e+00
9.720000000000000000e+02	0.000000000000000000e+00
9.730000000000000000e+02	0.000000000000000000e+00
9.740000000000000000e+02	0.000000000000000000e+00
9.750000000000000000e+02	0.000000000000000000e+00
9.760000000000000000e+02	0.000000000000000000e+00
9.770000000000000000e+02	0.000000000000000000e+00
9.780000000000000000e+02	0.000000000000000000e+00
9.790000000000000000e+02	0.000000000000000000e+00
9.800000000000000000e+02	0.000000000000000000e+00
9.810000000000000000e+02	0.000000000000000000e+00
9.820000000000000000e+02	0.000000000000000000e+00
9.830000000000000000e+02	0.000000000000000000e+00
9.840000000000000000e+02	0.000000000000000000e+00
9.850000000000000000e+02	0.000000000000000000e+00
9.860000000000000000e+02	0.000000000000000000e+00
9.870000000000000000e+02	0.000000000000000000e+00
9.880000000000000000e+02	0.000000000000000000e+00
9.890000000000000000e+02	0.000000000000000000e+00
9.900000000000000000e+02	0.000000000000000000e+00
9.910000000000000000e+02	0.000000000000000000e+00
9.920000000000000000e+02	0.000000000000000000e+00
9.930000000000000000e+02	0.000000000000000000e+00
9.940000000000000000e+02	0.000000000000000000e+00
9.950000000000000000e+02	0.000000000000000000e+00
9.960000000000000000e+02	0.000000000000000000e+00
9.970000000000000000e+02	0.000000000000000000e+00
9.980000000000000000e+02	0.000000000000000000e+00
9.990000000000000000e+02	0.000000000000000000e+00
1.000000000000000000e+03	0.000000000000000000e+00
