4.410000000000000000e+02	6.092595716637073338e+02
4.420000000000000000e+02	6.192436507559710890e+02
4.430000000000000000e+02	6.293227239899988490e+02
4.440000000000000000e+02	6.394961219708652607e+02
4.450000000000000000e+02	6.497631333460941505e+02
4.460000000000000000e+02	6.601230044401161194e+02
4.470000000000000000e+02	6.705749389060930525e+02
4.480000000000000000e+02	6.811180973956173830e+02
4.490000000000000000e+02	6.917515972467875827e+02
4.500000000000000000e+02	7.024745121911590786e+02
4.510000000000000000e+02	7.132858720800577430e+02
4.520000000000000000e+02	7.241846626307410588e+02
4.530000000000000000e+02	7.351698251928798982e+02
4.540000000000000000e+02	7.462402565358288484e+02
4.550000000000000000e+02	7.573948086571422209e+02
4.560000000000000000e+02	7.686322886127853735e+02
4.570000000000000000e+02	7.799514583694777912e+02
4.580000000000000000e+02	7.913510346795981150e+02
4.590000000000000000e+02	8.028296889790673276e+02
4.600000000000000000e+02	8.143860473086152751e+02
4.610000000000000000e+02	8.260186902588256999e+02
4.620000000000000000e+02	8.377261529393389310e+02
4.630000000000000000e+02	8.495069249725817144e+02
4.640000000000000000e+02	8.613594505123785439e+02
4.650000000000000000e+02	8.732821282877833937e+02
4.660000000000000000e+02	8.852733116724593856e+02
4.670000000000000000e+02	8.973313087799166397e+02
4.680000000000000000e+02	9.094543825849027598e+02
4.690000000000000000e+02	9.216407510712259636e+02
4.700000000000000000e+02	9.338885874062731318e+02
4.710000000000000000e+02	9.461960201424680008e+02
4.720000000000000000e+02	9.585611334458999409e+02
4.730000000000000000e+02	9.709819673523296615e+02
4.740000000000000000e+02	9.834565180507697733e+02
4.750000000000000000e+02	9.959827381948121001e+02
4.760000000000000000e+02	1.008558537241881709e+03
4.770000000000000000e+02	1.021181781820725405e+03
4.780000000000000000e+02	1.033850296128478931e+03
4.790000000000000000e+02	1.046561862365523893e+03
4.800000000000000000e+02	1.059314221258187445e+03
4.810000000000000000e+02	1.072105072956116601e+03
4.820000000000000000e+02	1.084932079836373305e+03
4.830000000000000000e+02	1.097792878827267032e+03
4.840000000000000000e+02	1.110685138404211784e+03
4.850000000000000000e+02	1.123606810886991525e+03
4.860000000000000000e+02	1.136557178126695590e+03
4.870000000000000000e+02	1.149540887014745522e+03
4.880000000000000000e+02	1.162582418224022604e+03
4.890000000000000000e+02	1.175774197642635954e+03
4.900000000000000000e+02	1.189424686889061149e+03
4.910000000000000000e+02	1.204479359929551038e+03
4.920000000000000000e+02	1.223622617435313259e+03
4.930000000000000000e+02	1.253923145153670703e+03
4.940000000000000000e+02	1.312626994457795945e+03
4.950000000000000000e+02	1.438639317408954639e+03
4.960000000000000000e+02	1.712870554323253373e+03
4.970000000000000000e+02	2.289806990365609636e+03
4.980000000000000000e+02	3.438662101671362052e+03
4.990000000000000000e+02	5.583808773603919690e+03
5.000000000000000000e+02	9.321601046936946659e+03
5.010000000000000000e+02	1.537934338585101978e+04
5.020000000000000000e+02	2.448222392792173923e+04
5.030000000000000000e+02	3.711675391900282557e+04
5.040000000000000000e+02	5.322801037663847092e+04
5.050000000000000000e+02	7.194852683426209842e+04
5.060000000000000000e+02	9.149583149232475262e+04
5.070000000000000000e+02	1.093557563547937752e+05
5.080000000000000000e+02	1.227746279491471651e+05
5.090000000000000000e+02	1.294446075675728207e+05
5.100000000000000000e+02	1.281517829589885660e+05
5.110000000000000000e+02	1.191375821380787529e+05
5.120000000000000000e+02	1.040258916472583660e+05
5.130000000000000000e+02	8.534605581495954539e+04
5.140000000000000000e+02	6.584398524766668561e+04
5.150000000000000000e+02	4.783802586214037001e+04
5.160000000000000000e+02	3.282056536834265717e+04
5.170000000000000000e+02	2.137519778414601387e+04
5.180000000000000000e+02	1.334875856426530663e+04
5.190000000000000000e+02	8.146573333850685231e+03
5.200000000000000000e+02	5.021720935130747421e+03
5.210000000000000000e+02	3.279526598308147641e+03
5.220000000000000000e+02	2.378090554283835445e+03
5.230000000000000000e+02	1.946587799556375785e+03
5.240000000000000000e+02	1.757532296851500860e+03
5.250000000000000000e+02	1.684266087443701508e+03
5.260000000000000000e+02	1.662286359170593641e+03
5.270000000000000000e+02	1.661387780016959368e+03
5.280000000000000000e+02	1.668514761051810183e+03
5.290000000000000000e+02	1.678443493652068810e+03
5.300000000000000000e+02	1.689234118866544122e+03
5.310000000000000000e+02	1.700216012378336245e+03
5.320000000000000000e+02	1.711172027470363673e+03
5.330000000000000000e+02	1.722035132338347239e+03
5.340000000000000000e+02	1.732784424554702355e+03
5.350000000000000000e+02	1.743412187320637031e+03
5.360000000000000000e+02	1.753914223007953979e+03
5.370000000000000000e+02	1.764287222262200430e+03
5.380000000000000000e+02	1.774528099526672349e+03
5.390000000000000000e+02	1.784633837793468956e+03
5.400000000000000000e+02	1.794601455726765607e+03
5.410000000000000000e+02	1.804428002107632665e+03
5.420000000000000000e+02	1.814110555948327601e+03
5.430000000000000000e+02	1.823646227696239293e+03
5.440000000000000000e+02	1.833032160626388304e+03
5.450000000000000000e+02	1.842265532256854158e+03
5.460000000000000000e+02	1.851343555758102639e+03
5.470000000000000000e+02	1.860263481350769780e+03
5.480000000000000000e+02	1.869022597690272050e+03
5.490000000000000000e+02	1.877618233237175900e+03
5.500000000000000000e+02	1.886047757612344412e+03
5.510000000000000000e+02	1.894308582935904496e+03
5.520000000000000000e+02	1.902398165149081706e+03
5.530000000000000000e+02	1.910314005317953388e+03
5.540000000000000000e+02	1.918053650918194307e+03
5.550000000000000000e+02	1.925614697099886598e+03
5.560000000000000000e+02	1.932994787931482506e+03
5.570000000000000000e+02	1.940191617622022477e+03
5.580000000000000000e+02	1.947202931720718198e+03
5.590000000000000000e+02	1.954026528293031788e+03
5.600000000000000000e+02	1.960660259072389636e+03
5.610000000000000000e+02	1.967102030586690262e+03
5.620000000000000000e+02	1.973349805258778360e+03
5.630000000000000000e+02	1.979401602480076463e+03
5.640000000000000000e+02	1.985255499656582742e+03
5.650000000000000000e+02	1.990909633226460528e+03
5.660000000000000000e+02	1.996362199648467822e+03
5.670000000000000000e+02	2.001611456360492184e+03
5.680000000000000000e+02	2.006655722707477707e+03
5.690000000000000000e+02	2.011493380838051053e+03
5.700000000000000000e+02	2.016122876569182608e+03
5.710000000000000000e+02	2.020542720218227942e+03
5.720000000000000000e+02	2.024751487401731993e+03
5.730000000000000000e+02	2.028747819800394382e+03
5.740000000000000000e+02	2.032530425889621938e+03
5.750000000000000000e+02	2.036098081635113203e+03
5.760000000000000000e+02	2.039449631152961274e+03
5.770000000000000000e+02	2.042583987333764071e+03
5.780000000000000000e+02	2.045500132430278882e+03
5.790000000000000000e+02	2.048197118608175060e+03
5.800000000000000000e+02	2.050674068459462433e+03
5.810000000000000000e+02	2.052930175478214551e+03
5.820000000000000000e+02	2.054964704498218452e+03
5.830000000000000000e+02	2.056776992092222372e+03
5.840000000000000000e+02	2.058366446932475355e+03
5.850000000000000000e+02	2.059732550112288209e+03
5.860000000000000000e+02	2.060874855428366118e+03
5.870000000000000000e+02	2.061792989623702397e+03
5.880000000000000000e+02	2.062486652590844187e+03
5.890000000000000000e+02	2.062955617535378678e+03
5.900000000000000000e+02	2.063199731099515702e+03
5.910000000000000000e+02	2.063218913445663475e+03
5.920000000000000000e+02	2.063013158299950192e+03
5.930000000000000000e+02	2.062582532955639635e+03
5.940000000000000000e+02	2.061927178236455347e+03
5.950000000000000000e+02	2.061047308419826095e+03
5.960000000000000000e+02	2.059943211120123578e+03
5.970000000000000000e+02	2.058615247131975138e+03
5.980000000000000000e+02	2.057063850233768335e+03
5.990000000000000000e+02	2.055289526951508378e+03
6.000000000000000000e+02	2.053292856283193032e+03
6.010000000000000000e+02	2.051074489383927357e+03
6.020000000000000000e+02	2.048635149212015222e+03
6.030000000000000000e+02	2.045975630136288828e+03
6.040000000000000000e+02	2.043096797504988217e+03
6.050000000000000000e+02	2.039999587176507021e+03
6.060000000000000000e+02	2.036685005012365309e+03
6.070000000000000000e+02	2.033154126332796977e+03
6.080000000000000000e+02	2.029408095335356620e+03
6.090000000000000000e+02	2.025448124476992461e+03
6.100000000000000000e+02	2.021275493820051224e+03
6.110000000000000000e+02	2.016891550342705841e+03
6.120000000000000000e+02	2.012297707214329193e+03
6.130000000000000000e+02	2.007495443036358211e+03
6.140000000000000000e+02	2.002486301049219719e+03
6.150000000000000000e+02	1.997271888305912171e+03
6.160000000000000000e+02	1.991853874812864888e+03
6.170000000000000000e+02	1.986233992638715563e+03
6.180000000000000000e+02	1.980414034991673816e+03
6.190000000000000000e+02	1.974395855266156786e+03
6.200000000000000000e+02	1.968181366059405718e+03
6.210000000000000000e+02	1.961772538158819543e+03
6.220000000000000000e+02	1.955171399500744656e+03
6.230000000000000000e+02	1.948380034101502815e+03
6.240000000000000000e+02	1.941400580961437754e+03
6.250000000000000000e+02	1.934235232942789480e+03
6.260000000000000000e+02	1.926886235622219374e+03
6.270000000000000000e+02	1.919355886118828039e+03
6.280000000000000000e+02	1.911646531898518106e+03
6.290000000000000000e+02	1.903760569555573966e+03
6.300000000000000000e+02	1.895700443572344739e+03
6.310000000000000000e+02	1.887468645057926324e+03
6.320000000000000000e+02	1.879067710466749986e+03
6.330000000000000000e+02	1.870500220298005388e+03
6.340000000000000000e+02	1.861768797776822566e+03
6.350000000000000000e+02	1.852876107518160779e+03
6.360000000000000000e+02	1.843824854174352367e+03
6.370000000000000000e+02	1.834617781067260012e+03
6.380000000000000000e+02	1.825257668806013953e+03
6.390000000000000000e+02	1.815747333891303015e+03
6.400000000000000000e+02	1.806089627307195997e+03
6.410000000000000000e+02	1.796287433101473198e+03
6.420000000000000000e+02	1.786343666955459867e+03
6.430000000000000000e+02	1.776261274744345883e+03
6.440000000000000000e+02	1.766043231088981884e+03
6.450000000000000000e+02	1.755692537900149091e+03
6.460000000000000000e+02	1.745212222916287601e+03
6.470000000000000000e+02	1.734605338235680620e+03
6.480000000000000000e+02	1.723874958844080538e+03
6.490000000000000000e+02	1.713024181138765243e+03
6.500000000000000000e+02	1.702056121450009414e+03
6.510000000000000000e+02	1.690973914560952608e+03
6.520000000000000000e+02	1.679780712226832293e+03
6.530000000000000000e+02	1.668479681694561805e+03
6.540000000000000000e+02	1.657074004223607972e+03
6.550000000000000000e+02	1.645566873609125651e+03
6.560000000000000000e+02	1.633961494708300734e+03
6.570000000000000000e+02	1.622261081970834766e+03
6.580000000000000000e+02	1.610468857974505454e+03
6.590000000000000000e+02	1.598588051966716193e+03
6.600000000000000000e+02	1.586621898412948212e+03
6.610000000000000000e+02	1.574573635553006625e+03
6.620000000000000000e+02	1.562446503965945794e+03
6.630000000000000000e+02	1.550243745144543027e+03
6.640000000000000000e+02	1.537968600080179158e+03
6.650000000000000000e+02	1.525624307858965722e+03
6.660000000000000000e+02	1.513214104269945210e+03
6.670000000000000000e+02	1.500741220426178870e+03
6.680000000000000000e+02	1.488208881399512848e+03
6.690000000000000000e+02	1.475620304869803249e+03
6.700000000000000000e+02	1.462978699789360917e+03
6.710000000000000000e+02	1.450287265063356244e+03
6.720000000000000000e+02	1.437549188246912308e+03
6.730000000000000000e+02	1.424767644259588451e+03
6.740000000000000000e+02	1.411945794117942796e+03
6.750000000000000000e+02	1.399086783686839226e+03
6.760000000000000000e+02	1.386193742450146374e+03
6.770000000000000000e+02	1.373269782301452551e+03
6.780000000000000000e+02	1.360317996355404603e+03
6.790000000000000000e+02	1.347341457780251176e+03
6.800000000000000000e+02	1.334343218652155883e+03
6.810000000000000000e+02	1.321326308831819460e+03
6.820000000000000000e+02	1.308293734863929103e+03
6.830000000000000000e+02	1.295248478899930660e+03
6.840000000000000000e+02	1.282193497644600484e+03
6.850000000000000000e+02	1.269131721326863499e+03
6.860000000000000000e+02	1.256066052695287908e+03
6.870000000000000000e+02	1.242999366038662856e+03
6.880000000000000000e+02	1.229934506232037393e+03
6.890000000000000000e+02	1.216874287808581812e+03
6.900000000000000000e+02	1.203821494057607424e+03
6.910000000000000000e+02	1.190778876149053303e+03
6.920000000000000000e+02	1.177749152284732190e+03
6.930000000000000000e+02	1.164735006876599755e+03
6.940000000000000000e+02	1.151739089752286418e+03
6.950000000000000000e+02	1.138764015388114558e+03
6.960000000000000000e+02	1.125812362169792777e+03
6.970000000000000000e+02	1.112886671680961172e+03
6.980000000000000000e+02	1.099989448019735391e+03
6.990000000000000000e+02	1.087123157143377739e+03
7.000000000000000000e+02	1.074290226241194205e+03
7.010000000000000000e+02	1.061493043135745211e+03
7.020000000000000000e+02	1.048733955712418492e+03
7.030000000000000000e+02	1.036015271377411636e+03
7.040000000000000000e+02	1.023339256544128261e+03
7.050000000000000000e+02	1.010708136147985670e+03
7.060000000000000000e+02	9.981240931896039683e+02
7.070000000000000000e+02	9.855892683063259483e+02
7.080000000000000000e+02	9.731057593719962142e+02
7.090000000000000000e+02	9.606756211249082753e+02
7.100000000000000000e+02	9.483008648238086380e+02
7.110000000000000000e+02	9.359834579318239776e+02
7.120000000000000000e+02	9.237253238281624590e+02
7.130000000000000000e+02	9.115283415474170852e+02
7.140000000000000000e+02	8.993943455462823522e+02
7.150000000000000000e+02	8.873251254974786661e+02
7.160000000000000000e+02	8.753224261106555559e+02
7.170000000000000000e+02	8.633879469800341440e+02
7.180000000000000000e+02	8.515233424585283046e+02
7.190000000000000000e+02	8.397302215580662050e+02
7.200000000000000000e+02	8.280101478758227813e+02
7.210000000000000000e+02	8.163646395460527856e+02
7.220000000000000000e+02	8.047951692172022149e+02
7.230000000000000000e+02	7.933031640539596765e+02
7.240000000000000000e+02	7.818900057638959424e+02
7.250000000000000000e+02	7.705570306483255081e+02
7.260000000000000000e+02	7.593055296770123732e+02
7.270000000000000000e+02	7.481367485863269167e+02
7.280000000000000000e+02	7.370518880004514131e+02
7.290000000000000000e+02	7.260521035752184389e+02
7.300000000000000000e+02	7.151385061641566381e+02
7.310000000000000000e+02	7.043121620063052433e+02
7.320000000000000000e+02	6.935740929353527235e+02
7.330000000000000000e+02	6.829252766096421965e+02
7.340000000000000000e+02	6.723666467625781706e+02
7.350000000000000000e+02	6.618990934729614537e+02
7.360000000000000000e+02	6.515234634547714450e+02
7.370000000000000000e+02	6.412405603659049120e+02
7.380000000000000000e+02	6.310511451353793291e+02
7.390000000000000000e+02	6.209559363084948700e+02
7.400000000000000000e+02	6.109556104094517650e+02
7.410000000000000000e+02	6.010508023209064277e+02
7.420000000000000000e+02	5.912421056799526013e+02
7.430000000000000000e+02	5.815300732900029743e+02
7.440000000000000000e+02	5.719152175480502365e+02
7.450000000000000000e+02	5.623980108867741592e+02
7.460000000000000000e+02	5.529788862309691240e+02
7.470000000000000000e+02	5.436582374677561802e+02
7.480000000000000000e+02	5.344364199300458722e+02
7.490000000000000000e+02	5.253137508927176214e+02
7.500000000000000000e+02	5.162905100809783789e+02
7.510000000000000000e+02	5.073669401903623566e+02
7.520000000000000000e+02	4.985432474178418261e+02
7.530000000000000000e+02	4.898196020035064748e+02
7.540000000000000000e+02	4.811961387822827874e+02
7.550000000000000000e+02	4.726729577451586124e+02
7.560000000000000000e+02	4.642501246093837040e+02
7.570000000000000000e+02	4.559276713971175354e+02
7.580000000000000000e+02	4.477055970220012000e+02
7.590000000000000000e+02	4.395838678831299262e+02
7.600000000000000000e+02	4.315624184659110369e+02
7.610000000000000000e+02	4.236411519492914408e+02
7.620000000000000000e+02	4.158199408188464758e+02
7.630000000000000000e+02	4.080986274852262454e+02
7.640000000000000000e+02	4.004770249074596791e+02
7.650000000000000000e+02	3.929549172206229173e+02
7.660000000000000000e+02	3.855320603673837354e+02
7.670000000000000000e+02	3.782081827329422481e+02
7.680000000000000000e+02	3.709829857828901822e+02
7.690000000000000000e+02	3.638561447035216929e+02
7.700000000000000000e+02	3.568273090441348359e+02
7.710000000000000000e+02	3.498961033608682669e+02
7.720000000000000000e+02	3.430621278616274026e+02
7.730000000000000000e+02	3.363249590516613807e+02
7.740000000000000000e+02	3.296841503793590960e+02
7.750000000000000000e+02	3.231392328818431565e+02
7.760000000000000000e+02	3.166897158299466923e+02
7.770000000000000000e+02	3.103350873721668108e+02
7.780000000000000000e+02	3.040748151772000938e+02
7.790000000000000000e+02	2.979083470746706439e+02
7.800000000000000000e+02	2.918351116936726157e+02
7.810000000000000000e+02	2.858545190987571800e+02
7.820000000000000000e+02	2.799659614230058651e+02
7.830000000000000000e+02	2.741688134978377320e+02
7.840000000000000000e+02	2.684624334792109153e+02
7.850000000000000000e+02	2.628461634698863918e+02
7.860000000000000000e+02	2.573193301374341218e+02
7.870000000000000000e+02	2.518812453276689780e+02
7.880000000000000000e+02	2.465312066732150811e+02
7.890000000000000000e+02	2.412684981969080411e+02
7.900000000000000000e+02	2.360923909097530213e+02
7.910000000000000000e+02	2.310021434031669969e+02
7.920000000000000000e+02	2.259970024352448377e+02
7.930000000000000000e+02	2.210762035107972281e+02
7.940000000000000000e+02	2.162389714549205166e+02
7.950000000000000000e+02	2.114845209798659482e+02
7.960000000000000000e+02	2.068120572449888925e+02
7.970000000000000000e+02	2.022207764095665539e+02
7.980000000000000000e+02	1.977098661782835620e+02
7.990000000000000000e+02	1.932785063391941947e+02
8.000000000000000000e+02	1.889258692939809521e+02
8.010000000000000000e+02	1.846511205803379028e+02
8.020000000000000000e+02	1.804534193863174778e+02
8.030000000000000000e+02	1.763319190564890846e+02
8.040000000000000000e+02	1.722857675897678007e+02
8.050000000000000000e+02	1.683141081287803047e+02
8.060000000000000000e+02	1.644160794406447224e+02
8.070000000000000000e+02	1.605908163890507865e+02
8.080000000000000000e+02	1.568374503975360881e+02
8.090000000000000000e+02	1.531551099038617849e+02
8.100000000000000000e+02	1.495429208054016783e+02
8.110000000000000000e+02	1.460000068954670951e+02
8.120000000000000000e+02	1.425254902904981122e+02
8.130000000000000000e+02	1.391184918480595627e+02
8.140000000000000000e+02	1.357781315755907769e+02
8.150000000000000000e+02	1.325035290298646089e+02
8.160000000000000000e+02	1.292938037071189967e+02
8.170000000000000000e+02	1.261480754238336459e+02
8.180000000000000000e+02	1.230654646881311578e+02
8.190000000000000000e+02	1.200450930617892311e+02
8.200000000000000000e+02	1.170860835128597444e+02
8.210000000000000000e+02	1.141875607588948043e+02
8.220000000000000000e+02	1.113486516007898359e+02
8.230000000000000000e+02	1.085684852472586783e+02
8.240000000000000000e+02	1.058461936299630111e+02
8.250000000000000000e+02	1.031809117093252155e+02
8.260000000000000000e+02	1.005717777710596152e+02
8.270000000000000000e+02	9.801793371346286676e+01
8.280000000000000000e+02	9.551852532551164643e+01
8.290000000000000000e+02	9.307270255581913432e+01
8.300000000000000000e+02	9.067961977251013650e+01
8.310000000000000000e+02	8.833843601407747315e+01
8.320000000000000000e+02	8.604831523128909510e+01
8.330000000000000000e+02	8.380842652022009531e+01
8.340000000000000000e+02	8.161794434648734864e+01
8.350000000000000000e+02	7.947604876077134861e+01
8.360000000000000000e+02	7.738192560571188494e+01
8.370000000000000000e+02	7.533476671426971905e+01
8.380000000000000000e+02	7.333377009965059301e+01
8.390000000000000000e+02	7.137814013689069270e+01
8.400000000000000000e+02	6.946708773620731847e+01
8.410000000000000000e+02	6.759983050822168593e+01
8.420000000000000000e+02	6.577559292116349354e+01
8.430000000000000000e+02	6.399360645017102911e+01
8.440000000000000000e+02	6.225310971880275446e+01
8.450000000000000000e+02	6.055334863287884417e+01
8.460000000000000000e+02	5.889357650677478517e+01
8.470000000000000000e+02	5.727305418229045841e+01
8.480000000000000000e+02	5.569105014022036215e+01
8.490000000000000000e+02	5.414684060475421745e+01
8.500000000000000000e+02	5.263970964083627280e+01
8.510000000000000000e+02	5.116894924461653460e+01
8.520000000000000000e+02	4.973385942712590690e+01
8.530000000000000000e+02	4.833374829131086159e+01
8.540000000000000000e+02	4.696793210256256401e+01
8.550000000000000000e+02	4.563573535287834915e+01
8.560000000000000000e+02	4.433649081879239162e+01
8.570000000000000000e+02	4.306953961321548263e+01
8.580000000000000000e+02	4.183423123132189403e+01
8.590000000000000000e+02	4.062992359062462810e+01
8.600000000000000000e+02	3.945598306537797129e+01
8.610000000000000000e+02	3.831178451544875685e+01
8.620000000000000000e+02	3.719671130979669016e+01
8.630000000000000000e+02	3.611015534470402599e+01
8.640000000000000000e+02	3.505151705689587516e+01
8.650000000000000000e+02	3.402020543169043520e+01
8.660000000000000000e+02	3.301563800631981849e+01
8.670000000000000000e+02	3.203724086856054498e+01
8.680000000000000000e+02	3.108444865081270336e+01
8.690000000000000000e+02	3.015670451976587429e+01
8.700000000000000000e+02	2.925346016178950492e+01
8.710000000000000000e+02	2.837417576418378928e+01
8.720000000000000000e+02	2.751831999242739002e+01
8.730000000000000000e+02	2.668536996355586055e+01
8.740000000000000000e+02	2.587481121580466237e+01
8.750000000000000000e+02	2.508613767464880695e+01
8.760000000000000000e+02	2.431885161537018547e+01
8.770000000000000000e+02	2.357246362228190151e+01
8.780000000000000000e+02	2.284649254473818658e+01
8.790000000000000000e+02	2.214046545005605537e+01
8.800000000000000000e+02	2.145391757347425354e+01
8.810000000000000000e+02	2.078639226527259254e+01
8.820000000000000000e+02	2.013744093517367872e+01
8.830000000000000000e+02	1.950662299414705103e+01
8.840000000000000000e+02	1.889350579373406447e+01
8.850000000000000000e+02	1.829766456300975008e+01
8.860000000000000000e+02	1.771868234329669178e+01
8.870000000000000000e+02	1.715614992074312184e+01
8.880000000000000000e+02	1.660966575687632130e+01
8.890000000000000000e+02	1.607883591723993888e+01
8.900000000000000000e+02	1.556327399822207980e+01
8.910000000000000000e+02	1.506260105217871370e+01
8.920000000000000000e+02	1.457644551095535945e+01
8.930000000000000000e+02	1.410444310790730427e+01
8.940000000000000000e+02	1.364623679851702498e+01
8.950000000000000000e+02	1.320147667970518590e+01
8.960000000000000000e+02	1.276981990792927668e+01
8.970000000000000000e+02	1.235093061616215948e+01
8.980000000000000000e+02	1.194447982984021372e+01
8.990000000000000000e+02	1.155014538186915196e+01
9.000000000000000000e+02	1.116761182677273645e+01
9.010000000000000000e+02	1.079657035406816235e+01
9.020000000000000000e+02	1.043671870094909693e+01
9.030000000000000000e+02	1.008776106435560926e+01
9.040000000000000000e+02	9.749408012507862153e+00
9.050000000000000000e+02	9.421376395978386498e+00
9.060000000000000000e+02	9.103389258375417015e+00
9.070000000000000000e+02	8.795175746707986519e+00
9.080000000000000000e+02	8.496471021500870080e+00
9.090000000000000000e+02	8.207016166725908946e+00
9.100000000000000000e+02	7.926558099613466801e+00
9.110000000000000000e+02	7.654849480406523909e+00
9.120000000000000000e+02	7.391648622116929523e+00
9.130000000000000000e+02	7.136719400342123265e+00
9.140000000000000000e+02	6.889831163197948527e+00
9.150000000000000000e+02	6.650758641421665729e+00
9.160000000000000000e+02	6.419281858696935572e+00
9.170000000000000000e+02	6.195186042250785619e+00
9.180000000000000000e+02	5.978261533770587555e+00
9.190000000000000000e+02	5.768303700687158475e+00
9.200000000000000000e+02	5.565112847868139312e+00
9.210000000000000000e+02	5.368494129764173728e+00
9.220000000000000000e+02	5.178257463048270282e+00
9.230000000000000000e+02	4.994217439787248303e+00
9.240000000000000000e+02	4.816193241182165963e+00
9.250000000000000000e+02	4.644008551912992111e+00
9.260000000000000000e+02	4.477491475121120779e+00
9.270000000000000000e+02	4.316474448061563329e+00
9.280000000000000000e+02	4.160794158455073166e+00
9.290000000000000000e+02	4.010291461568815663e+00
9.300000000000000000e+02	3.864811298052663879e+00
9.310000000000000000e+02	3.724202612556624103e+00
9.320000000000000000e+02	3.588318273153401350e+00
9.330000000000000000e+02	3.457014991588638786e+00
9.340000000000000000e+02	3.330153244379951083e+00
9.350000000000000000e+02	3.207597194784387096e+00
9.360000000000000000e+02	3.089214615652734697e+00
9.370000000000000000e+02	2.974876813187569358e+00
9.380000000000000000e+02	2.864458551620781446e+00
9.390000000000000000e+02	2.757837978824991598e+00
9.400000000000000000e+02	2.654896552872037852e+00
9.410000000000000000e+02	2.555518969550528041e+00
9.420000000000000000e+02	2.459593090853283037e+00
9.430000000000000000e+02	2.367009874444359507e+00
9.440000000000000000e+02	2.277663304114266651e+00
9.450000000000000000e+02	2.191450321230891340e+00
9.460000000000000000e+02	2.108270757192689082e+00
9.470000000000000000e+02	2.028027266889575575e+00
9.480000000000000000e+02	1.950625263176161139e+00
9.490000000000000000e+02	1.875972852360864085e+00
9.500000000000000000e+02	1.803980770713698778e+00
9.510000000000000000e+02	1.734562321994527867e+00
9.520000000000000000e+02	1.667633316002870458e+00
9.530000000000000000e+02	1.603112008149403245e+00
9.540000000000000000e+02	1.540919040048688515e+00
9.550000000000000000e+02	1.480977381131745707e+00
9.560000000000000000e+02	1.423212271276535601e+00
9.570000000000000000e+02	1.367551164453582713e+00
9.580000000000000000e+02	1.313923673383460944e+00
9.590000000000000000e+02	1.262261515202119488e+00
9.600000000000000000e+02	1.212498458129491530e+00
9.610000000000000000e+02	1.164570269136230296e+00
9.620000000000000000e+02	1.118414662602897902e+00
9.630000000000000000e+02	1.073971249965383956e+00
9.640000000000000000e+02	1.031181490339865281e+00
9.650000000000000000e+02	9.899886421201137265e-01
9.660000000000000000e+02	9.503377155395803522e-01
9.670000000000000000e+02	9.121754261901826588e-01
9.680000000000000000e+02	8.754501494894133540e-01
9.690000000000000000e+02	8.401118760869251689e-01
9.700000000000000000e+02	8.061121682014918965e-01
9.710000000000000000e+02	7.734041168788398091e-01
9.720000000000000000e+02	7.419423001605864876e-01
9.730000000000000000e+02	7.116827421541986887e-01
9.740000000000000000e+02	6.825828729936670447e-01
9.750000000000000000e+02	6.546014896802906380e-01
9.760000000000000000e+02	6.276987177927844108e-01
9.770000000000000000e+02	6.018359740556828985e-01
9.780000000000000000e+02	5.769759297548491261e-01
9.790000000000000000e+02	5.530824749886954494e-01
9.800000000000000000e+02	5.301206837435964436e-01
9.810000000000000000e+02	5.080567797818117404e-01
9.820000000000000000e+02	4.868581033301186967e-01
9.830000000000000000e+02	4.664930785572535821e-01
9.840000000000000000e+02	4.469311818281604398e-01
9.850000000000000000e+02	4.281429107229530184e-01
9.860000000000000000e+02	4.100997538084549809e-01
9.870000000000000000e+02	3.927741611501081587e-01
9.880000000000000000e+02	3.761395155520183553e-01
9.890000000000000000e+02	3.601701045128375966e-01
9.900000000000000000e+02	3.448410928852371216e-01
9.910000000000000000e+02	3.301284962266413658e-01
9.920000000000000000e+02	3.160091548289476471e-01
9.930000000000000000e+02	3.024607084149642522e-01
9.940000000000000000e+02	2.894615714893067349e-01
9.950000000000000000e+02	2.769909093315453541e-01
9.960000000000000000e+02	2.650286146194295589e-01
9.970000000000000000e+02	2.535552846700742102e-01
9.980000000000000000e+02	2.425521992870478261e-01
9.990000000000000000e+02	2.320012992013728848e-01
1.000000000000000000e+03	2.218851650945167231e-01
