4.410000000000000000e+02	9.073716936308509062e+00
4.420000000000000000e+02	9.607564821864539084e+00
4.430000000000000000e+02	1.017026883972734375e+01
4.440000000000000000e+02	1.076322840415588544e+01
4.450000000000000000e+02	1.138790126662886415e+01
4.460000000000000000e+02	1.204580541153705298e+01
4.470000000000000000e+02	1.273852098440018743e+01
4.480000000000000000e+02	1.346769225150980098e+01
4.490000000000000000e+02	1.423502958977925203e+01
4.500000000000000000e+02	1.504231150545694717e+01
4.510000000000000000e+02	1.589138668023003120e+01
4.520000000000000000e+02	1.678417604311190914e+01
4.530000000000000000e+02	1.772267486636929590e+01
4.540000000000000000e+02	1.870895488360219616e+01
4.550000000000000000e+02	1.974516642794447208e+01
4.560000000000000000e+02	2.083354058820164312e+01
4.570000000000000000e+02	2.197639138058942976e+01
4.580000000000000000e+02	2.317611793357769656e+01
4.590000000000000000e+02	2.443520668318379663e+01
4.600000000000000000e+02	2.575623357589383389e+01
4.610000000000000000e+02	2.714186627622268588e+01
4.620000000000000000e+02	2.859486637575188794e+01
4.630000000000000000e+02	3.011809160031143051e+01
4.640000000000000000e+02	3.171449801179420902e+01
4.650000000000000000e+02	3.338714220091365803e+01
4.660000000000000000e+02	3.513918346703426465e+01
4.670000000000000000e+02	3.697388598102239143e+01
4.680000000000000000e+02	3.889462092688110317e+01
4.690000000000000000e+02	4.090486861774822813e+01
4.700000000000000000e+02	4.300822058165142892e+01
4.710000000000000000e+02	4.520838161222935980e+01
4.720000000000000000e+02	4.750917177944175762e+01
4.730000000000000000e+02	4.991452839510776585e+01
4.740000000000000000e+02	5.242850792792865633e+01
4.750000000000000000e+02	5.505528786246850359e+01
4.760000000000000000e+02	5.779916849639117515e+01
4.770000000000000000e+02	6.066457467009846027e+01
4.780000000000000000e+02	6.365605742291416647e+01
4.790000000000000000e+02	6.677829557099370561e+01
4.800000000000000000e+02	7.003609720963669361e+01
4.810000000000000000e+02	7.343440118792109672e+01
4.820000000000000000e+02	7.697827885265155601e+01
4.830000000000000000e+02	8.067293762573945060e+01
4.840000000000000000e+02	8.452373393868838036e+01
4.850000000000000000e+02	8.853622892679494782e+01
4.860000000000000000e+02	9.271642383884767469e+01
4.870000000000000000e+02	9.707169298694724091e+01
4.880000000000000000e+02	1.016142155449015405e+02
4.890000000000000000e+02	1.063726537418349807e+02
4.900000000000000000e+02	1.114288321257809713e+02
4.910000000000000000e+02	1.170237991070802934e+02
4.920000000000000000e+02	1.238392769082117297e+02
4.930000000000000000e+02	1.336801675972004944e+02
4.940000000000000000e+02	1.509780830370564217e+02
4.950000000000000000e+02	1.857744041723781265e+02
4.960000000000000000e+02	2.589783940712054573e+02
4.970000000000000000e+02	4.104064079977893016e+02
4.980000000000000000e+02	7.089249872350912938e+02
4.990000000000000000e+02	1.261608334595506676e+03
5.000000000000000000e+02	2.215535154563528067e+03
5.010000000000000000e+02	3.743325945237371798e+03
5.020000000000000000e+02	6.004634368551054649e+03
5.030000000000000000e+02	9.083286038507349076e+03
5.040000000000000000e+02	1.291353091855684215e+04
5.050000000000000000e+02	1.722373411629518159e+04
5.060000000000000000e+02	2.153211190750517926e+04
5.070000000000000000e+02	2.521791800264090125e+04
5.080000000000000000e+02	2.766222386947818450e+04
5.090000000000000000e+02	2.841702549917995202e+04
5.100000000000000000e+02	2.733973045731911770e+04
5.110000000000000000e+02	2.463768736384175281e+04
5.120000000000000000e+02	2.080369952853584982e+04
5.130000000000000000e+02	1.647001397242351595e+04
5.140000000000000000e+02	1.224006957818559931e+04
5.150000000000000000e+02	8.558780950456388382e+03
5.160000000000000000e+02	5.656320388725458542e+03
5.170000000000000000e+02	3.564692570224982774e+03
5.180000000000000000e+02	2.180029331702318814e+03
5.190000000000000000e+02	1.336047685427511169e+03
5.200000000000000000e+02	8.628375414566037307e+02
5.210000000000000000e+02	6.204502083015681819e+02
5.220000000000000000e+02	5.095635612842664841e+02
5.230000000000000000e+02	4.676486491626339443e+02
5.240000000000000000e+02	4.592383095649833535e+02
5.250000000000000000e+02	4.660368945400854273e+02
5.260000000000000000e+02	4.794094469726657053e+02
5.270000000000000000e+02	4.956129163511607771e+02
5.280000000000000000e+02	5.131545681731007562e+02
5.290000000000000000e+02	5.314878805477450214e+02
5.300000000000000000e+02	5.504315848763751546e+02
5.310000000000000000e+02	5.699342436478387981e+02
5.320000000000000000e+02	5.899869872279575702e+02
5.330000000000000000e+02	6.105938045536860272e+02
5.340000000000000000e+02	6.317622203317060894e+02
5.350000000000000000e+02	6.535005873479474303e+02
5.360000000000000000e+02	6.758173518240557769e+02
5.370000000000000000e+02	6.987208610457960276e+02
5.380000000000000000e+02	7.222193085053713730e+02
5.390000000000000000e+02	7.463207111618708041e+02
5.400000000000000000e+02	7.710328935066515896e+02
5.410000000000000000e+02	7.963634728226445532e+02
5.420000000000000000e+02	8.223198444956132107e+02
5.430000000000000000e+02	8.489091671722655974e+02
5.440000000000000000e+02	8.761383477423843260e+02
5.450000000000000000e+02	9.040140261555693542e+02
5.460000000000000000e+02	9.325425600894463969e+02
5.470000000000000000e+02	9.617300094878912660e+02
5.480000000000000000e+02	9.915821209887499208e+02
5.490000000000000000e+02	1.022104312261379846e+03
5.500000000000000000e+02	1.053301656275129062e+03
5.510000000000000000e+02	1.085178865520659883e+03
5.520000000000000000e+02	1.117740276206779981e+03
5.530000000000000000e+02	1.150989832456180466e+03
5.540000000000000000e+02	1.184931070524198049e+03
5.550000000000000000e+02	1.219567103065407082e+03
5.560000000000000000e+02	1.254900603473483670e+03
5.570000000000000000e+02	1.290933790320440721e+03
5.580000000000000000e+02	1.327668411921886900e+03
5.590000000000000000e+02	1.365105731055532260e+03
5.600000000000000000e+02	1.403246509860682863e+03
5.610000000000000000e+02	1.442090994946908040e+03
5.620000000000000000e+02	1.481638902740524827e+03
5.630000000000000000e+02	1.521889405097898361e+03
5.640000000000000000e+02	1.562841115214901492e+03
5.650000000000000000e+02	1.604492073862153575e+03
5.660000000000000000e+02	1.646839735975887379e+03
5.670000000000000000e+02	1.689880957634465176e+03
5.680000000000000000e+02	1.733611983450693060e+03
5.690000000000000000e+02	1.778028434410123509e+03
5.700000000000000000e+02	1.823125296185548905e+03
5.710000000000000000e+02	1.868896907957833491e+03
5.720000000000000000e+02	1.915336951773080045e+03
5.730000000000000000e+02	1.962438442465975641e+03
5.740000000000000000e+02	2.010193718178868039e+03
5.750000000000000000e+02	2.058594431505837292e+03
5.760000000000000000e+02	2.107631541290616497e+03
5.770000000000000000e+02	2.157295305106768865e+03
5.780000000000000000e+02	2.207575272447998941e+03
5.790000000000000000e+02	2.258460278655894854e+03
5.800000000000000000e+02	2.309938439611703416e+03
5.810000000000000000e+02	2.361997147218046848e+03
5.820000000000000000e+02	2.414623065695657260e+03
5.830000000000000000e+02	2.467802128719338725e+03
5.840000000000000000e+02	2.521519537416432740e+03
5.850000000000000000e+02	2.575759759250047409e+03
5.860000000000000000e+02	2.630506527808229293e+03
5.870000000000000000e+02	2.685742843519123653e+03
5.880000000000000000e+02	2.741450975310939157e+03
5.890000000000000000e+02	2.797612463234284860e+03
5.900000000000000000e+02	2.854208122063086648e+03
5.910000000000000000e+02	2.911218045888906545e+03
5.920000000000000000e+02	2.968621613722023085e+03
5.930000000000000000e+02	3.026397496111123019e+03
5.940000000000000000e+02	3.084523662791887091e+03
5.950000000000000000e+02	3.142977391373123282e+03
5.960000000000000000e+02	3.201735277067433799e+03
5.970000000000000000e+02	3.260773243471696787e+03
5.980000000000000000e+02	3.320066554400866153e+03
5.990000000000000000e+02	3.379589826776800692e+03
6.000000000000000000e+02	3.439317044571997030e+03
6.010000000000000000e+02	3.499221573806219112e+03
6.020000000000000000e+02	3.559276178592138876e+03
6.030000000000000000e+02	3.619453038224135071e+03
6.040000000000000000e+02	3.679723765302489937e+03
6.050000000000000000e+02	3.740059424883229440e+03
6.060000000000000000e+02	3.800430554641866365e+03
6.070000000000000000e+02	3.860807186037346582e+03
6.080000000000000000e+02	3.921158866460449190e+03
6.090000000000000000e+02	3.981454682348940878e+03
6.100000000000000000e+02	4.041663283249771666e+03
6.110000000000000000e+02	4.101752906806592364e+03
6.120000000000000000e+02	4.161691404648938260e+03
6.130000000000000000e+02	4.221446269157438110e+03
6.140000000000000000e+02	4.280984661077489363e+03
6.150000000000000000e+02	4.340273437951912456e+03
6.160000000000000000e+02	4.399279183341255703e+03
6.170000000000000000e+02	4.457968236798551516e+03
6.180000000000000000e+02	4.516306724563534772e+03
6.190000000000000000e+02	4.574260590939597932e+03
6.200000000000000000e+02	4.631795630315042217e+03
6.210000000000000000e+02	4.688877519788524296e+03
6.220000000000000000e+02	4.745471852357043645e+03
6.230000000000000000e+02	4.801544170623263199e+03
6.240000000000000000e+02	4.857060000977518939e+03
6.250000000000000000e+02	4.911984888208470693e+03
6.260000000000000000e+02	4.966284430495070410e+03
6.270000000000000000e+02	5.019924314731260893e+03
6.280000000000000000e+02	5.072870352133702909e+03
6.290000000000000000e+02	5.125088514081761787e+03
6.300000000000000000e+02	5.176544968138017794e+03
6.310000000000000000e+02	5.227206114196706949e+03
6.320000000000000000e+02	5.277038620706694928e+03
6.330000000000000000e+02	5.326009460914962801e+03
6.340000000000000000e+02	5.374085949075949429e+03
6.350000000000000000e+02	5.421235776571681527e+03
6.360000000000000000e+02	5.467427047887240406e+03
6.370000000000000000e+02	5.512628316385841572e+03
6.380000000000000000e+02	5.556808619827709663e+03
6.390000000000000000e+02	5.599937515576846636e+03
6.400000000000000000e+02	5.641985115439915717e+03
6.410000000000000000e+02	5.682922120081632784e+03
6.420000000000000000e+02	5.722719852961370634e+03
6.430000000000000000e+02	5.761350293736112690e+03
6.440000000000000000e+02	5.798786111075414738e+03
6.450000000000000000e+02	5.835000694834687238e+03
6.460000000000000000e+02	5.869968187533886521e+03
6.470000000000000000e+02	5.903663515089539942e+03
6.480000000000000000e+02	5.936062416749068689e+03
6.490000000000000000e+02	5.967141474177397868e+03
6.500000000000000000e+02	5.996878139647114949e+03
6.510000000000000000e+02	6.025250763284676395e+03
6.520000000000000000e+02	6.052238619326619300e+03
6.530000000000000000e+02	6.077821931341217351e+03
6.540000000000000000e+02	6.101981896372622941e+03
6.550000000000000000e+02	6.124700707966264417e+03
6.560000000000000000e+02	6.145961578036014544e+03
6.570000000000000000e+02	6.165748757535558070e+03
6.580000000000000000e+02	6.184047555898330756e+03
6.590000000000000000e+02	6.200844359212438576e+03
6.600000000000000000e+02	6.216126647099083129e+03
6.610000000000000000e+02	6.229883008265204808e+03
6.620000000000000000e+02	6.242103154703294422e+03
6.630000000000000000e+02	6.252777934513645050e+03
6.640000000000000000e+02	6.261899343326662347e+03
6.650000000000000000e+02	6.269460534305295369e+03
6.660000000000000000e+02	6.275455826710068322e+03
6.670000000000000000e+02	6.279880713011729313e+03
6.680000000000000000e+02	6.282731864539047820e+03
6.690000000000000000e+02	6.284007135651851058e+03
6.700000000000000000e+02	6.283705566431971420e+03
6.710000000000000000e+02	6.281827383887394717e+03
6.720000000000000000e+02	6.278374001667475568e+03
6.730000000000000000e+02	6.273348018289743777e+03
6.740000000000000000e+02	6.266753213881390366e+03
6.750000000000000000e+02	6.258594545441164883e+03
6.760000000000000000e+02	6.248878140630010421e+03
6.770000000000000000e+02	6.237611290101295708e+03
6.780000000000000000e+02	6.224802438384111156e+03
6.790000000000000000e+02	6.210461173335569583e+03
6.800000000000000000e+02	6.194598214180566174e+03
6.810000000000000000e+02	6.177225398159872384e+03
6.820000000000000000e+02	6.158355665809853235e+03
6.830000000000000000e+02	6.138003044899430279e+03
6.840000000000000000e+02	6.116182633052201709e+03
6.850000000000000000e+02	6.092910579083850280e+03
6.860000000000000000e+02	6.068204063087137911e+03
6.870000000000000000e+02	6.042081275298858600e+03
6.880000000000000000e+02	6.014561393785133987e+03
6.890000000000000000e+02	5.985664560983365845e+03
6.900000000000000000e+02	5.955411859141009700e+03
6.910000000000000000e+02	5.923825284693060894e+03
6.920000000000000000e+02	5.890927721621856108e+03
6.930000000000000000e+02	5.856742913844304894e+03
6.940000000000000000e+02	5.821295436673187396e+03
6.950000000000000000e+02	5.784610667400484999e+03
6.960000000000000000e+02	5.746714755051996690e+03
6.970000000000000000e+02	5.707634589363641680e+03
6.980000000000000000e+02	5.667397769030916606e+03
6.990000000000000000e+02	5.626032569283883277e+03
7.000000000000000000e+02	5.583567908840944256e+03
7.010000000000000000e+02	5.540033316295331133e+03
7.020000000000000000e+02	5.495458895988872428e+03
7.030000000000000000e+02	5.449875293428075565e+03
7.040000000000000000e+02	5.403313660297962087e+03
7.050000000000000000e+02	5.355805619129325351e+03
7.060000000000000000e+02	5.307383227675268245e+03
7.070000000000000000e+02	5.258078943052889372e+03
7.080000000000000000e+02	5.207925585705920639e+03
7.090000000000000000e+02	5.156956303243941875e+03
7.100000000000000000e+02	5.105204534213501574e+03
7.110000000000000000e+02	5.052703971856049975e+03
7.120000000000000000e+02	4.999488527907124080e+03
7.130000000000000000e+02	4.945592296490577610e+03
7.140000000000000000e+02	4.891049518160943080e+03
7.150000000000000000e+02	4.835894544146224689e+03
7.160000000000000000e+02	4.780161800842482990e+03
7.170000000000000000e+02	4.723885754610578260e+03
7.180000000000000000e+02	4.667100876924386284e+03
7.190000000000000000e+02	4.609841609918564245e+03
7.200000000000000000e+02	4.552142332382735731e+03
7.210000000000000000e+02	4.494037326247606870e+03
7.220000000000000000e+02	4.435560743607117729e+03
7.230000000000000000e+02	4.376746574319240608e+03
7.240000000000000000e+02	4.317628614226521677e+03
7.250000000000000000e+02	4.258240434035799808e+03
7.260000000000000000e+02	4.198615348894920317e+03
7.270000000000000000e+02	4.138786388702503245e+03
7.280000000000000000e+02	4.078786269185076435e+03
7.290000000000000000e+02	4.018647363774053247e+03
7.300000000000000000e+02	3.958401676313201278e+03
7.310000000000000000e+02	3.898080814625338917e+03
7.320000000000000000e+02	3.837715964965094827e+03
7.330000000000000000e+02	3.777337867382610057e+03
7.340000000000000000e+02	3.716976792021111123e+03
7.350000000000000000e+02	3.656662516369292007e+03
7.360000000000000000e+02	3.596424303487456655e+03
7.370000000000000000e+02	3.536290881224380882e+03
7.380000000000000000e+02	3.476290422439846225e+03
7.390000000000000000e+02	3.416450526245805122e+03
7.400000000000000000e+02	3.356798200277152773e+03
7.410000000000000000e+02	3.297359844001097827e+03
7.420000000000000000e+02	3.238161233072160030e+03
7.430000000000000000e+02	3.179227504737886647e+03
7.440000000000000000e+02	3.120583144298460411e+03
7.450000000000000000e+02	3.062251972621479126e+03
7.460000000000000000e+02	3.004257134711320305e+03
7.470000000000000000e+02	2.946621089330703398e+03
7.480000000000000000e+02	2.889365599670240954e+03
7.490000000000000000e+02	2.832511725060058325e+03
7.500000000000000000e+02	2.776079813715849923e+03
7.510000000000000000e+02	2.720089496510076515e+03
7.520000000000000000e+02	2.664559681757428734e+03
7.530000000000000000e+02	2.609508551002116292e+03
7.540000000000000000e+02	2.554953555793060332e+03
7.550000000000000000e+02	2.500911415431631212e+03
7.560000000000000000e+02	2.447398115675186546e+03
7.570000000000000000e+02	2.394428908378372398e+03
7.580000000000000000e+02	2.342018312052875899e+03
7.590000000000000000e+02	2.290180113325163347e+03
7.600000000000000000e+02	2.238927369270581039e+03
7.610000000000000000e+02	2.188272410601177398e+03
7.620000000000000000e+02	2.138226845683600914e+03
7.630000000000000000e+02	2.088801565362525253e+03
7.640000000000000000e+02	2.040006748564190275e+03
7.650000000000000000e+02	1.991851868653895281e+03
7.660000000000000000e+02	1.944345700520549826e+03
7.670000000000000000e+02	1.897496328360762618e+03
7.680000000000000000e+02	1.851311154134385561e+03
7.690000000000000000e+02	1.805796906662914807e+03
7.700000000000000000e+02	1.760959651341740255e+03
7.710000000000000000e+02	1.716804800436856340e+03
7.720000000000000000e+02	1.673337123936362559e+03
7.730000000000000000e+02	1.630560760926845887e+03
7.740000000000000000e+02	1.588479231464583108e+03
7.750000000000000000e+02	1.547095448911380799e+03
7.760000000000000000e+02	1.506411732704863198e+03
7.770000000000000000e+02	1.466429821533007043e+03
7.780000000000000000e+02	1.427150886882832765e+03
7.790000000000000000e+02	1.388575546933280521e+03
7.800000000000000000e+02	1.350703880762507424e+03
7.810000000000000000e+02	1.313535442840087171e+03
7.820000000000000000e+02	1.277069277774888633e+03
7.830000000000000000e+02	1.241303935289770379e+03
7.840000000000000000e+02	1.206237485394616670e+03
7.850000000000000000e+02	1.171867533729692013e+03
7.860000000000000000e+02	1.138191237051767530e+03
7.870000000000000000e+02	1.105205318836013475e+03
7.880000000000000000e+02	1.072906084967202560e+03
7.890000000000000000e+02	1.041289439494386670e+03
7.900000000000000000e+02	1.010350900423831035e+03
7.910000000000000000e+02	9.800856155256668671e+02
7.920000000000000000e+02	9.504883781304191643e+02
7.930000000000000000e+02	9.215536428922803225e+02
7.940000000000000000e+02	8.932755414967622301e+02
7.950000000000000000e+02	8.656478982911150979e+02
7.960000000000000000e+02	8.386642458166949154e+02
7.970000000000000000e+02	8.123178402232759936e+02
7.980000000000000000e+02	7.866016765461017712e+02
7.990000000000000000e+02	7.615085038273324471e+02
8.000000000000000000e+02	7.370308400643632467e+02
8.010000000000000000e+02	7.131609869683512670e+02
8.020000000000000000e+02	6.898910445171518404e+02
8.030000000000000000e+02	6.672129252877080035e+02
8.040000000000000000e+02	6.451183685538242116e+02
8.050000000000000000e+02	6.235989541360959265e+02
8.060000000000000000e+02	6.026461159916411816e+02
8.070000000000000000e+02	5.822511555321348169e+02
8.080000000000000000e+02	5.624052546594911064e+02
8.090000000000000000e+02	5.430994885093986113e+02
8.100000000000000000e+02	5.243248378937238385e+02
8.110000000000000000e+02	5.060722014336504913e+02
8.120000000000000000e+02	4.883324073762114494e+02
8.130000000000000000e+02	4.710962250876843314e+02
8.140000000000000000e+02	4.543543762180964904e+02
8.150000000000000000e+02	4.380975455318610443e+02
8.160000000000000000e+02	4.223163914003080777e+02
8.170000000000000000e+02	4.070015559526183893e+02
8.180000000000000000e+02	3.921436748823705329e+02
8.190000000000000000e+02	3.777333869076132373e+02
8.200000000000000000e+02	3.637613428830485418e+02
8.210000000000000000e+02	3.502182145635521238e+02
8.220000000000000000e+02	3.370947030189016118e+02
8.230000000000000000e+02	3.243815467001763295e+02
8.240000000000000000e+02	3.120695291588833697e+02
8.250000000000000000e+02	3.001494864204211694e+02
8.260000000000000000e+02	2.886123140140245482e+02
8.270000000000000000e+02	2.774489736618498910e+02
8.280000000000000000e+02	2.666504996303418125e+02
8.290000000000000000e+02	2.562080047474870526e+02
8.300000000000000000e+02	2.461126860899924225e+02
8.310000000000000000e+02	2.363558303448437243e+02
8.320000000000000000e+02	2.269288188500785282e+02
8.330000000000000000e+02	2.178231323199785265e+02
8.340000000000000000e+02	2.090303552602173056e+02
8.350000000000000000e+02	2.005421800788156759e+02
8.360000000000000000e+02	1.923504108990472901e+02
8.370000000000000000e+02	1.844469670806988688e+02
8.380000000000000000e+02	1.768238864563368509e+02
8.390000000000000000e+02	1.694733282894472097e+02
8.400000000000000000e+02	1.623875759615156085e+02
8.410000000000000000e+02	1.555590393952874138e+02
8.420000000000000000e+02	1.489802572216028977e+02
8.430000000000000000e+02	1.426438986973332419e+02
8.440000000000000000e+02	1.365427653820575813e+02
8.450000000000000000e+02	1.306697925812125902e+02
8.460000000000000000e+02	1.250180505635193242e+02
8.470000000000000000e+02	1.195807455605483511e+02
8.480000000000000000e+02	1.143512205563200723e+02
8.490000000000000000e+02	1.093229558748577830e+02
8.500000000000000000e+02	1.044895695736156398e+02
8.510000000000000000e+02	9.984481765068923664e+01
8.520000000000000000e+02	9.538259407369335463e+01
8.530000000000000000e+02	9.109693063814572156e+01
8.540000000000000000e+02	8.698199666314401668e+01
8.550000000000000000e+02	8.303209853205500224e+01
8.560000000000000000e+02	7.924167908585373254e+01
8.570000000000000000e+02	7.560531687666096445e+01
8.580000000000000000e+02	7.211772528892346656e+01
8.590000000000000000e+02	6.877375153557250087e+01
8.600000000000000000e+02	6.556837553637205929e+01
8.610000000000000000e+02	6.249670868553963032e+01
8.620000000000000000e+02	5.955399251558605300e+01
8.630000000000000000e+02	5.673559726417364146e+01
8.640000000000000000e+02	5.403702035064228681e+01
8.650000000000000000e+02	5.145388476869553074e+01
8.660000000000000000e+02	4.898193740157478260e+01
8.670000000000000000e+02	4.661704726588416747e+01
8.680000000000000000e+02	4.435520369005575247e+01
8.690000000000000000e+02	4.219251443327057416e+01
8.700000000000000000e+02	4.012520375047221677e+01
8.710000000000000000e+02	3.814961040893042110e+01
8.720000000000000000e+02	3.626218566162820167e+01
8.730000000000000000e+02	3.445949118256348953e+01
8.740000000000000000e+02	3.273819696887132835e+01
8.750000000000000000e+02	3.109507921448623691e+01
8.760000000000000000e+02	2.952701815988117318e+01
8.770000000000000000e+02	2.803099592223186320e+01
8.780000000000000000e+02	2.660409431017350457e+01
8.790000000000000000e+02	2.524349262713197461e+01
8.800000000000000000e+02	2.394646546703044976e+01
8.810000000000000000e+02	2.271038050599286606e+01
8.820000000000000000e+02	2.153269629348691794e+01
8.830000000000000000e+02	2.041096004617444493e+01
8.840000000000000000e+02	1.934280544756383335e+01
8.850000000000000000e+02	1.832595045638918307e+01
8.860000000000000000e+02	1.735819512647392671e+01
8.870000000000000000e+02	1.643741944067333804e+01
8.880000000000000000e+02	1.556158116132963798e+01
8.890000000000000000e+02	1.472871369951758425e+01
8.900000000000000000e+02	1.393692400520533425e+01
8.910000000000000000e+02	1.318439048030703020e+01
8.920000000000000000e+02	1.246936091645846467e+01
8.930000000000000000e+02	1.179015045920716886e+01
8.940000000000000000e+02	1.114513960017184679e+01
8.950000000000000000e+02	1.053277219859397817e+01
8.960000000000000000e+02	9.951553533577325084e+00
8.970000000000000000e+02	9.400048388187494552e+00
8.980000000000000000e+02	8.876879166465368343e+00
8.990000000000000000e+02	8.380724044293879516e+00
9.000000000000000000e+02	7.910315154947795691e+00
9.010000000000000000e+02	7.464436810051130244e+00
9.020000000000000000e+02	7.041923756565705794e+00
9.030000000000000000e+02	6.641659470338166393e+00
9.040000000000000000e+02	6.262574486640615667e+00
9.050000000000000000e+02	5.903644768052403791e+00
9.060000000000000000e+02	5.563890109947175588e+00
9.070000000000000000e+02	5.242372583770065653e+00
9.080000000000000000e+02	4.938195018215030707e+00
9.090000000000000000e+02	4.650499518341177030e+00
9.100000000000000000e+02	4.378466022600171925e+00
9.110000000000000000e+02	4.121310897683795993e+00
9.120000000000000000e+02	3.878285571041398150e+00
9.130000000000000000e+02	3.648675200861716483e+00
9.140000000000000000e+02	3.431797383261690371e+00
9.150000000000000000e+02	3.227000896376551964e+00
9.160000000000000000e+02	3.033664481000841739e+00
9.170000000000000000e+02	2.851195657388319926e+00
9.180000000000000000e+02	2.679029577780662752e+00
9.190000000000000000e+02	2.516627914199626392e+00
9.200000000000000000e+02	2.363477781005192124e+00
9.210000000000000000e+02	2.219090691693115680e+00
9.220000000000000000e+02	2.083001549378751704e+00
9.230000000000000000e+02	1.954767670390340939e+00
9.240000000000000000e+02	1.833967840373711855e+00
9.250000000000000000e+02	1.720201402291679615e+00
9.260000000000000000e+02	1.613087375684986835e+00
9.270000000000000000e+02	1.512263606547504802e+00
9.280000000000000000e+02	1.417385947156453607e+00
9.290000000000000000e+02	1.328127465188315481e+00
9.300000000000000000e+02	1.244177681443161099e+00
9.310000000000000000e+02	1.165241835493784572e+00
9.320000000000000000e+02	1.091040178571615948e+00
9.330000000000000000e+02	1.021307292998328009e+00
9.340000000000000000e+02	9.557914374708756933e-01
9.350000000000000000e+02	8.942539175076190672e-01
9.360000000000000000e+02	8.364684803645958677e-01
9.370000000000000000e+02	7.822207337337694355e-01
9.380000000000000000e+02	7.313075875387426983e-01
9.390000000000000000e+02	6.835367181484636179e-01
9.400000000000000000e+02	6.387260543352504261e-01
9.410000000000000000e+02	5.967032843103771134e-01
9.420000000000000000e+02	5.573053831780606648e-01
9.430000000000000000e+02	5.203781601572218252e-01
9.440000000000000000e+02	4.857758249294865660e-01
9.450000000000000000e+02	4.533605724817574290e-01
9.460000000000000000e+02	4.230021858220371911e-01
9.470000000000000000e+02	3.945776559580858045e-01
9.480000000000000000e+02	3.679708185398841147e-01
9.490000000000000000e+02	3.430720065785952677e-01
9.500000000000000000e+02	3.197777186668781524e-01
9.510000000000000000e+02	2.979903021377787176e-01
9.520000000000000000e+02	2.776176506121367238e-01
9.530000000000000000e+02	2.585729153972827765e-01
9.540000000000000000e+02	2.407742302128925149e-01
9.550000000000000000e+02	2.241444487329869173e-01
9.560000000000000000e+02	2.086108944463766768e-01
9.570000000000000000e+02	1.941051223511333634e-01
9.580000000000000000e+02	1.805626920120241008e-01
9.590000000000000000e+02	1.679229515231722147e-01
9.600000000000000000e+02	1.561288319314983186e-01
9.610000000000000000e+02	1.451266516897292969e-01
9.620000000000000000e+02	1.348659307208942837e-01
9.630000000000000000e+02	1.252992136892757125e-01
9.640000000000000000e+02	1.163819020856566161e-01
9.650000000000000000e+02	1.080720947474857613e-01
9.660000000000000000e+02	1.003304364471338528e-01
9.670000000000000000e+02	9.311997419384247798e-02
9.680000000000000000e+02	8.640602090714739891e-02
9.690000000000000000e+02	8.015602613156634637e-02
9.700000000000000000e+02	7.433945347411130555e-02
9.710000000000000000e+02	6.892766445772255390e-02
9.720000000000000000e+02	6.389380849503886739e-02
9.730000000000000000e+02	5.921271869796385784e-02
9.740000000000000000e+02	5.486081324930412034e-02
9.750000000000000000e+02	5.081600207329894925e-02
9.760000000000000000e+02	4.705759855215112947e-02
9.770000000000000000e+02	4.356623604568924529e-02
9.780000000000000000e+02	4.032378898104724274e-02
9.790000000000000000e+02	3.731329828873478777e-02
9.800000000000000000e+02	3.451890097068701507e-02
9.810000000000000000e+02	3.192576359483188797e-02
9.820000000000000000e+02	2.952001951938848165e-02
9.830000000000000000e+02	2.728870965852403171e-02
9.840000000000000000e+02	2.521972660913811976e-02
9.850000000000000000e+02	2.330176196642657835e-02
9.860000000000000000e+02	2.152425666349413319e-02
9.870000000000000000e+02	1.987735417764931178e-02
9.880000000000000000e+02	1.835185645312055122e-02
9.890000000000000000e+02	1.693918239678991050e-02
9.900000000000000000e+02	1.563132881015188644e-02
9.910000000000000000e+02	1.442083362707268293e-02
9.920000000000000000e+02	1.330074133305759153e-02
9.930000000000000000e+02	1.226457044763285160e-02
9.940000000000000000e+02	1.130628295712173687e-02
9.950000000000000000e+02	1.042025559054353574e-02
9.960000000000000000e+02	9.601252836600007376e-03
9.970000000000000000e+02	8.844401604734722366e-03
9.980000000000000000e+02	8.145167438070156571e-03
9.990000000000000000e+02	7.499332190644307679e-03
1.000000000000000000e+03	6.902973085791869017e-03
