4.410000000000000000e+02	1.281433723826759241e+01
4.420000000000000000e+02	1.359047949981432346e+01
4.430000000000000000e+02	1.440995787991291799e+01
4.440000000000000000e+02	1.527495515861768283e+01
4.450000000000000000e+02	1.618774959071865993e+01
4.460000000000000000e+02	1.715071824494407693e+01
4.470000000000000000e+02	1.816634041349558615e+01
4.480000000000000000e+02	1.923720109075076934e+01
4.490000000000000000e+02	2.036599451977236441e+01
4.500000000000000000e+02	2.155552780505695409e+01
4.510000000000000000e+02	2.280872458974283035e+01
4.520000000000000000e+02	2.412862879527282445e+01
4.530000000000000000e+02	2.551840842127692710e+01
4.540000000000000000e+02	2.698135940319769333e+01
4.550000000000000000e+02	2.852090952493263032e+01
4.560000000000000000e+02	3.014062238350926748e+01
4.570000000000000000e+02	3.184420140254155385e+01
4.580000000000000000e+02	3.363549389094067266e+01
4.590000000000000000e+02	3.551849514307046007e+01
4.600000000000000000e+02	3.749735257624454476e+01
4.610000000000000000e+02	3.957636990116355946e+01
4.620000000000000000e+02	4.176001132058307519e+01
4.630000000000000000e+02	4.405290575118811347e+01
4.640000000000000000e+02	4.645985106332816628e+01
4.650000000000000000e+02	4.898581833293927446e+01
4.660000000000000000e+02	5.163595609964334443e+01
4.670000000000000000e+02	5.441559462467694885e+01
4.680000000000000000e+02	5.733025014195309410e+01
4.690000000000000000e+02	6.038562909521222366e+01
4.700000000000000000e+02	6.358763235386188484e+01
4.710000000000000000e+02	6.694235939974618077e+01
4.720000000000000000e+02	7.045611247672705701e+01
4.730000000000000000e+02	7.413540069459322979e+01
4.740000000000000000e+02	7.798694407844905641e+01
4.750000000000000000e+02	8.201767755437101926e+01
4.760000000000000000e+02	8.623475486175767912e+01
4.770000000000000000e+02	9.064555238247179147e+01
4.780000000000000000e+02	9.525767287678893069e+01
4.790000000000000000e+02	1.000789491176690404e+02
4.800000000000000000e+02	1.051174474262258514e+02
4.810000000000000000e+02	1.103814711793300631e+02
4.820000000000000000e+02	1.158795647310007411e+02
4.830000000000000000e+02	1.216205200561351774e+02
4.840000000000000000e+02	1.276133971303789991e+02
4.850000000000000000e+02	1.338676066055697618e+02
4.860000000000000000e+02	1.403932528463714959e+02
4.870000000000000000e+02	1.472024837406522408e+02
4.880000000000000000e+02	1.543144405894603324e+02
4.890000000000000000e+02	1.617720914471642857e+02
4.900000000000000000e+02	1.696951823780521238e+02
4.910000000000000000e+02	1.784339274065667951e+02
4.920000000000000000e+02	1.889793883866244641e+02
4.930000000000000000e+02	2.039676491575569912e+02
4.940000000000000000e+02	2.299195682227526447e+02
4.950000000000000000e+02	2.817595693816523976e+02
4.960000000000000000e+02	3.909651414311001645e+02
4.970000000000000000e+02	6.184434318433027329e+02
4.980000000000000000e+02	1.071666403260159086e+03
4.990000000000000000e+02	1.922037453353349065e+03
5.000000000000000000e+02	3.413100820148322327e+03
5.010000000000000000e+02	5.845134420918294381e+03
5.020000000000000000e+02	9.521227156620003370e+03
5.030000000000000000e+02	1.464914403888390916e+04
5.040000000000000000e+02	2.121391040197758775e+04
5.050000000000000000e+02	2.886225706138887472e+04
5.060000000000000000e+02	3.685753007978411188e+04
5.070000000000000000e+02	4.415575393131462624e+04
5.080000000000000000e+02	4.961327580449510424e+04
5.090000000000000000e+02	5.227641051846292976e+04
5.100000000000000000e+02	5.165400278780686494e+04
5.110000000000000000e+02	4.786617666220804676e+04
5.120000000000000000e+02	4.160749280479446315e+04
5.130000000000000000e+02	3.394000924421671516e+04
5.140000000000000000e+02	2.600080743352271020e+04
5.150000000000000000e+02	1.873407804824208142e+04
5.160000000000000000e+02	1.273138304262896600e+04
5.170000000000000000e+02	8.206048751429038020e+03
5.180000000000000000e+02	5.072355003357091846e+03
5.190000000000000000e+02	3.071999570639189187e+03
5.200000000000000000e+02	1.893751090201490115e+03
5.210000000000000000e+02	1.255077690888426332e+03
5.220000000000000000e+02	9.398968539308725667e+02
5.230000000000000000e+02	8.030448417476438863e+02
5.240000000000000000e+02	7.570835952698982965e+02
5.250000000000000000e+02	7.542319939094098800e+02
5.260000000000000000e+02	7.706266874711577657e+02
5.270000000000000000e+02	7.953228200001879031e+02
5.280000000000000000e+02	8.236974571093805935e+02
5.290000000000000000e+02	8.539518195614127762e+02
5.300000000000000000e+02	8.854447551610730898e+02
5.310000000000000000e+02	9.179721212834948574e+02
5.320000000000000000e+02	9.514821055937800338e+02
5.330000000000000000e+02	9.859719903289633294e+02
5.340000000000000000e+02	1.021453659899505510e+03
5.350000000000000000e+02	1.057942946811531101e+03
5.360000000000000000e+02	1.095456574020258586e+03
5.370000000000000000e+02	1.134011328350218719e+03
5.380000000000000000e+02	1.173623839049270373e+03
5.390000000000000000e+02	1.214310507963337159e+03
5.400000000000000000e+02	1.256087474608497814e+03
5.410000000000000000e+02	1.298970588371823624e+03
5.420000000000000000e+02	1.342975381735400333e+03
5.430000000000000000e+02	1.388117043293643292e+03
5.440000000000000000e+02	1.434410390350863736e+03
5.450000000000000000e+02	1.481869841083722804e+03
5.460000000000000000e+02	1.530509386290043722e+03
5.470000000000000000e+02	1.580342560753007319e+03
5.480000000000000000e+02	1.631382414252343096e+03
5.490000000000000000e+02	1.683641482255970914e+03
5.500000000000000000e+02	1.737131756327208450e+03
5.510000000000000000e+02	1.791864654284341668e+03
5.520000000000000000e+02	1.847850990150973757e+03
5.530000000000000000e+02	1.905100943937172588e+03
5.540000000000000000e+02	1.963624031293025382e+03
5.550000000000000000e+02	2.023429073077717476e+03
5.560000000000000000e+02	2.084524164888772248e+03
5.570000000000000000e+02	2.146916646597531781e+03
5.580000000000000000e+02	2.210613071938335906e+03
5.590000000000000000e+02	2.275619178200238366e+03
5.600000000000000000e+02	2.341939856071339818e+03
5.610000000000000000e+02	2.409579119687056846e+03
5.620000000000000000e+02	2.478540076934796161e+03
5.630000000000000000e+02	2.548824900068554598e+03
5.640000000000000000e+02	2.620434796687971357e+03
5.650000000000000000e+02	2.693369981137277591e+03
5.660000000000000000e+02	2.767629646380371469e+03
5.670000000000000000e+02	2.843211936409025384e+03
5.680000000000000000e+02	2.920113919241804069e+03
5.690000000000000000e+02	2.998331560571845330e+03
5.700000000000000000e+02	3.077859698122062582e+03
5.710000000000000000e+02	3.158692016766620782e+03
5.720000000000000000e+02	3.240821024477767423e+03
5.730000000000000000e+02	3.324238029157168512e+03
5.740000000000000000e+02	3.408933116410851198e+03
5.750000000000000000e+02	3.494895128326719714e+03
5.760000000000000000e+02	3.582111643313304739e+03
5.770000000000000000e+02	3.670568957057981152e+03
5.780000000000000000e+02	3.760252064662401608e+03
5.790000000000000000e+02	3.851144644012118533e+03
5.800000000000000000e+02	3.943229040436650848e+03
5.810000000000000000e+02	4.036486252715238606e+03
5.820000000000000000e+02	4.130895920482467773e+03
5.830000000000000000e+02	4.226436313086725931e+03
5.840000000000000000e+02	4.323084319953057275e+03
5.850000000000000000e+02	4.420815442500539575e+03
5.860000000000000000e+02	4.519603787662596005e+03
5.870000000000000000e+02	4.619422063056935258e+03
5.880000000000000000e+02	4.720241573849873021e+03
5.890000000000000000e+02	4.822032221357732851e+03
5.900000000000000000e+02	4.924762503425848990e+03
5.910000000000000000e+02	5.028399516623387171e+03
5.920000000000000000e+02	5.132908960289730203e+03
5.930000000000000000e+02	5.238255142465625795e+03
5.940000000000000000e+02	5.344400987739593802e+03
5.950000000000000000e+02	5.451308047037260621e+03
5.960000000000000000e+02	5.558936509378383562e+03
5.970000000000000000e+02	5.667245215623273907e+03
5.980000000000000000e+02	5.776191674227169642e+03
5.990000000000000000e+02	5.885732079017892829e+03
6.000000000000000000e+02	5.995821329008741486e+03
6.010000000000000000e+02	6.106413050255170674e+03
6.020000000000000000e+02	6.217459619760272290e+03
6.030000000000000000e+02	6.328912191430475104e+03
6.040000000000000000e+02	6.440720724079249521e+03
6.050000000000000000e+02	6.552834011472828934e+03
6.060000000000000000e+02	6.665199714408196087e+03
6.070000000000000000e+02	6.777764394809782061e+03
6.080000000000000000e+02	6.890473551827399206e+03
6.090000000000000000e+02	7.003271659914083102e+03
6.100000000000000000e+02	7.116102208858535050e+03
6.110000000000000000e+02	7.228907745742990301e+03
6.120000000000000000e+02	7.341629918793314573e+03
6.130000000000000000e+02	7.454209523084253306e+03
6.140000000000000000e+02	7.566586548058799053e+03
6.150000000000000000e+02	7.678700226816732538e+03
6.160000000000000000e+02	7.790489087123539321e+03
6.170000000000000000e+02	7.901891004087055080e+03
6.180000000000000000e+02	8.012843254445412640e+03
6.190000000000000000e+02	8.123282572406128565e+03
6.200000000000000000e+02	8.233145206972554661e+03
6.210000000000000000e+02	8.342366980690268974e+03
6.220000000000000000e+02	8.450883349742582141e+03
6.230000000000000000e+02	8.558629465320860618e+03
6.240000000000000000e+02	8.665540236192162411e+03
6.250000000000000000e+02	8.771550392383440339e+03
6.260000000000000000e+02	8.876594549898582045e+03
6.270000000000000000e+02	8.980607276381602787e+03
6.280000000000000000e+02	9.083523157636578617e+03
6.290000000000000000e+02	9.185276864912251767e+03
6.300000000000000000e+02	9.285803222856777211e+03
6.310000000000000000e+02	9.385037278045841958e+03
6.320000000000000000e+02	9.482914367985156787e+03
6.330000000000000000e+02	9.579370190486491992e+03
6.340000000000000000e+02	9.674340873314575219e+03
6.350000000000000000e+02	9.767763044000639638e+03
6.360000000000000000e+02	9.859573899717048334e+03
6.370000000000000000e+02	9.949711277106240232e+03
6.380000000000000000e+02	1.003811372195624244e+04
6.390000000000000000e+02	1.012472055861432273e+04
6.400000000000000000e+02	1.020947195902975000e+04
6.410000000000000000e+02	1.029230901131633982e+04
6.420000000000000000e+02	1.037317378772536904e+04
6.430000000000000000e+02	1.045200941191955098e+04
6.440000000000000000e+02	1.052876012543914112e+04
6.450000000000000000e+02	1.060337135325180680e+04
6.460000000000000000e+02	1.067578976827866973e+04
6.470000000000000000e+02	1.074596335479002482e+04
6.480000000000000000e+02	1.081384147056542497e+04
6.490000000000000000e+02	1.087937490771433841e+04
6.500000000000000000e+02	1.094251595205528974e+04
6.510000000000000000e+02	1.100321844095329288e+04
6.520000000000000000e+02	1.106143781951754318e+04
6.530000000000000000e+02	1.111713119506368821e+04
6.540000000000000000e+02	1.117025738974752312e+04
6.550000000000000000e+02	1.122077699127979758e+04
6.560000000000000000e+02	1.126865240163468843e+04
6.570000000000000000e+02	1.131384788366773137e+04
6.580000000000000000e+02	1.135632960556233047e+04
6.590000000000000000e+02	1.139606568302743290e+04
6.600000000000000000e+02	1.143302621917277065e+04
6.610000000000000000e+02	1.146718334199180390e+04
6.620000000000000000e+02	1.149851123938663659e+04
6.630000000000000000e+02	1.152698619167326069e+04
6.640000000000000000e+02	1.155258660150986361e+04
6.650000000000000000e+02	1.157529302119529530e+04
6.660000000000000000e+02	1.159508817728943905e+04
6.670000000000000000e+02	1.161195699251181577e+04
6.680000000000000000e+02	1.162588660487958987e+04
6.690000000000000000e+02	1.163686638405095073e+04
6.700000000000000000e+02	1.164488794484479513e+04
6.710000000000000000e+02	1.164994515791266167e+04
6.720000000000000000e+02	1.165203415754389061e+04
6.730000000000000000e+02	1.165115334659007931e+04
6.740000000000000000e+02	1.164730339850009659e+04
6.750000000000000000e+02	1.164048725646196544e+04
6.760000000000000000e+02	1.163071012965320369e+04
6.770000000000000000e+02	1.161797948660627480e+04
6.780000000000000000e+02	1.160230504570097401e+04
6.790000000000000000e+02	1.158369876280072640e+04
6.800000000000000000e+02	1.156217481605478315e+04
6.810000000000000000e+02	1.153774958789336961e+04
6.820000000000000000e+02	1.151044164424780138e+04
6.830000000000000000e+02	1.148027171103245746e+04
6.840000000000000000e+02	1.144726264793030896e+04
6.850000000000000000e+02	1.141143941952843306e+04
6.860000000000000000e+02	1.137282906385451679e+04
6.870000000000000000e+02	1.133146065836986600e+04
6.880000000000000000e+02	1.128736528347878266e+04
6.890000000000000000e+02	1.124057598361844066e+04
6.900000000000000000e+02	1.119112772599738673e+04
6.910000000000000000e+02	1.113905735705484403e+04
6.920000000000000000e+02	1.108440355671664111e+04
6.930000000000000000e+02	1.102720679052729247e+04
6.940000000000000000e+02	1.096750925974107849e+04
6.950000000000000000e+02	1.090535484945830831e+04
6.960000000000000000e+02	1.084078907489590893e+04
6.970000000000000000e+02	1.077385902588438148e+04
6.980000000000000000e+02	1.070461330968577204e+04
6.990000000000000000e+02	1.063310199222981464e+04
7.000000000000000000e+02	1.055937653786751798e+04
7.010000000000000000e+02	1.048348974774359158e+04
7.020000000000000000e+02	1.040549569689081363e+04
7.030000000000000000e+02	1.032544967015107250e+04
7.040000000000000000e+02	1.024340809702909974e+04
7.050000000000000000e+02	1.015942848558609876e+04
7.060000000000000000e+02	1.007356935548133697e+04
7.070000000000000000e+02	9.985890170270409726e+03
7.080000000000000000e+02	9.896451269069380942e+03
7.090000000000000000e+02	9.805313797694201639e+03
7.100000000000000000e+02	9.712539639384773182e+03
7.110000000000000000e+02	9.618191345222849122e+03
7.120000000000000000e+02	9.522332064352463931e+03
7.130000000000000000e+02	9.425025474110958385e+03
7.140000000000000000e+02	9.326335710177767396e+03
7.150000000000000000e+02	9.226327296847062826e+03
7.160000000000000000e+02	9.125065077529046903e+03
7.170000000000000000e+02	9.022614145583202117e+03
7.180000000000000000e+02	8.919039775585124517e+03
7.190000000000000000e+02	8.814407355126708353e+03
7.200000000000000000e+02	8.708782317247336323e+03
7.210000000000000000e+02	8.602230073591617838e+03
7.220000000000000000e+02	8.494815948386674791e+03
7.230000000000000000e+02	8.386605113329555024e+03
7.240000000000000000e+02	8.277662523472547036e+03
7.250000000000000000e+02	8.168052854191361803e+03
7.260000000000000000e+02	8.057840439318156314e+03
7.270000000000000000e+02	7.947089210518212894e+03
7.280000000000000000e+02	7.835862637985934271e+03
7.290000000000000000e+02	7.724223672532360069e+03
7.300000000000000000e+02	7.612234689133053507e+03
7.310000000000000000e+02	7.499957432001610869e+03
7.320000000000000000e+02	7.387452961250449334e+03
7.330000000000000000e+02	7.274781601196812517e+03
7.340000000000000000e+02	7.162002890368197768e+03
7.350000000000000000e+02	7.049175533257563984e+03
7.360000000000000000e+02	6.936357353874852379e+03
7.370000000000000000e+02	6.823605251137419145e+03
7.380000000000000000e+02	6.710975156138112652e+03
7.390000000000000000e+02	6.598521991325720592e+03
7.400000000000000000e+02	6.486299631628641691e+03
7.410000000000000000e+02	6.374360867548641181e+03
7.420000000000000000e+02	6.262757370247630206e+03
7.430000000000000000e+02	6.151539658646516727e+03
7.440000000000000000e+02	6.040757068551279190e+03
7.450000000000000000e+02	5.930457723817546139e+03
7.460000000000000000e+02	5.820688509561191495e+03
7.470000000000000000e+02	5.711495047418702597e+03
7.480000000000000000e+02	5.602921672857353769e+03
7.490000000000000000e+02	5.495011414531648370e+03
7.500000000000000000e+02	5.387805975678885261e+03
7.510000000000000000e+02	5.281345717543284081e+03
7.520000000000000000e+02	5.175669644814692219e+03
7.530000000000000000e+02	5.070815393064634918e+03
7.540000000000000000e+02	4.966819218159244883e+03
7.550000000000000000e+02	4.863715987625564594e+03
7.560000000000000000e+02	4.761539173944707727e+03
7.570000000000000000e+02	4.660320849742523933e+03
7.580000000000000000e+02	4.560091684845644522e+03
7.590000000000000000e+02	4.460880945168203652e+03
7.600000000000000000e+02	4.362716493391985750e+03
7.610000000000000000e+02	4.265624791400417053e+03
7.620000000000000000e+02	4.169630904424558139e+03
7.630000000000000000e+02	4.074758506857181601e+03
7.640000000000000000e+02	3.981029889688988987e+03
7.650000000000000000e+02	3.888465969519269038e+03
7.660000000000000000e+02	3.797086299091515684e+03
7.670000000000000000e+02	3.706909079303055478e+03
7.680000000000000000e+02	3.617951172636223873e+03
7.690000000000000000e+02	3.530228117957424729e+03
7.700000000000000000e+02	3.443754146629230036e+03
7.710000000000000000e+02	3.358542199879659165e+03
7.720000000000000000e+02	3.274603947371945196e+03
7.730000000000000000e+02	3.191949806917336446e+03
7.740000000000000000e+02	3.110588965272878340e+03
7.750000000000000000e+02	3.030529399965682842e+03
7.760000000000000000e+02	2.951777902084814286e+03
7.770000000000000000e+02	2.874340099981738604e+03
7.780000000000000000e+02	2.798220483820193749e+03
7.790000000000000000e+02	2.723422430916345093e+03
7.800000000000000000e+02	2.649948231810284142e+03
7.810000000000000000e+02	2.577799117010161808e+03
7.820000000000000000e+02	2.506975284350636230e+03
7.830000000000000000e+02	2.437475926907808116e+03
7.840000000000000000e+02	2.369299261413396380e+03
7.850000000000000000e+02	2.302442557111583938e+03
7.860000000000000000e+02	2.236902165002777565e+03
7.870000000000000000e+02	2.172673547419360148e+03
7.880000000000000000e+02	2.109751307879494107e+03
7.890000000000000000e+02	2.048129221166077969e+03
7.900000000000000000e+02	1.987800263579051716e+03
7.910000000000000000e+02	1.928756643310470054e+03
7.920000000000000000e+02	1.870989830892974624e+03
7.930000000000000000e+02	1.814490589673658860e+03
7.940000000000000000e+02	1.759249006266662718e+03
7.950000000000000000e+02	1.705254520939279701e+03
7.960000000000000000e+02	1.652495957887822669e+03
7.970000000000000000e+02	1.600961555361037199e+03
7.980000000000000000e+02	1.550638995590375771e+03
7.990000000000000000e+02	1.501515434488072287e+03
8.000000000000000000e+02	1.453577531075557317e+03
8.010000000000000000e+02	1.406811476606399083e+03
8.020000000000000000e+02	1.361203023349643217e+03
8.030000000000000000e+02	1.316737513001074831e+03
8.040000000000000000e+02	1.273399904691644224e+03
8.050000000000000000e+02	1.231174802563986987e+03
8.060000000000000000e+02	1.190046482889673825e+03
8.070000000000000000e+02	1.149998920701536690e+03
8.080000000000000000e+02	1.111015815917091231e+03
8.090000000000000000e+02	1.073080618930805485e+03
8.100000000000000000e+02	1.036176555654605636e+03
8.110000000000000000e+02	1.000286651987689538e+03
8.120000000000000000e+02	9.653937576983628333e+02
8.130000000000000000e+02	9.314805697022350159e+02
8.140000000000000000e+02	8.985296547227105748e+02
8.150000000000000000e+02	8.665234713212728366e+02
8.160000000000000000e+02	8.354443912866186110e+02
8.170000000000000000e+02	8.052747203731984200e+02
8.180000000000000000e+02	7.759967183811849054e+02
8.190000000000000000e+02	7.475926185713540235e+02
8.200000000000000000e+02	7.200446464097361741e+02
8.210000000000000000e+02	6.933350376382772993e+02
8.220000000000000000e+02	6.674460556690452222e+02
8.230000000000000000e+02	6.423600083008180945e+02
8.240000000000000000e+02	6.180592637580901965e+02
8.250000000000000000e+02	5.945262660537420061e+02
8.260000000000000000e+02	5.717435496777425215e+02
8.270000000000000000e+02	5.496937536153478732e+02
8.280000000000000000e+02	5.283596346992965209e+02
8.290000000000000000e+02	5.077240803015061488e+02
8.300000000000000000e+02	4.877701203707068203e+02
8.310000000000000000e+02	4.684809388233484242e+02
8.320000000000000000e+02	4.498398842959666126e+02
8.330000000000000000e+02	4.318304802679814429e+02
8.340000000000000000e+02	4.144364345646541210e+02
8.350000000000000000e+02	3.976416482506254511e+02
8.360000000000000000e+02	3.814302239251061337e+02
8.370000000000000000e+02	3.657864734303900605e+02
8.380000000000000000e+02	3.506949249859210909e+02
8.390000000000000000e+02	3.361403297606428282e+02
8.400000000000000000e+02	3.221076678968246370e+02
8.410000000000000000e+02	3.085821539989774465e+02
8.420000000000000000e+02	2.955492421018343521e+02
8.430000000000000000e+02	2.829946301317089024e+02
8.440000000000000000e+02	2.709042638758214139e+02
8.450000000000000000e+02	2.592643404744339932e+02
8.460000000000000000e+02	2.480613114508370813e+02
8.470000000000000000e+02	2.372818852943946979e+02
8.480000000000000000e+02	2.269130296119874401e+02
8.490000000000000000e+02	2.169419728632840645e+02
8.500000000000000000e+02	2.073562056953241211e+02
8.510000000000000000e+02	1.981434818919304064e+02
8.520000000000000000e+02	1.892918189534478302e+02
8.530000000000000000e+02	1.807894983222804228e+02
8.540000000000000000e+02	1.726250652696189718e+02
8.550000000000000000e+02	1.647873284586675879e+02
8.560000000000000000e+02	1.572653591995454008e+02
8.570000000000000000e+02	1.500484904109042077e+02
8.580000000000000000e+02	1.431263153031221975e+02
8.590000000000000000e+02	1.364886857977534476e+02
8.600000000000000000e+02	1.301257106976913178e+02
8.610000000000000000e+02	1.240277536222807413e+02
8.620000000000000000e+02	1.181854307213593103e+02
8.630000000000000000e+02	1.125896081819465735e+02
8.640000000000000000e+02	1.072313995410195844e+02
8.650000000000000000e+02	1.021021628175170264e+02
8.660000000000000000e+02	9.719349747641281567e+01
8.670000000000000000e+02	9.249724123737907178e+01
8.680000000000000000e+02	8.800546674023303240e+01
8.690000000000000000e+02	8.371047807902726845e+01
8.700000000000000000e+02	7.960480721630096923e+01
8.710000000000000000e+02	7.568121028865593303e+01
8.720000000000000000e+02	7.193266381447345736e+01
8.730000000000000000e+02	6.835236081422418408e+01
8.740000000000000000e+02	6.493370685346289406e+01
8.750000000000000000e+02	6.167031601823641296e+01
8.760000000000000000e+02	5.855600683226830228e+01
8.770000000000000000e+02	5.558479812491432170e+01
8.780000000000000000e+02	5.275090485852290101e+01
8.790000000000000000e+02	5.004873392346609506e+01
8.800000000000000000e+02	4.747287990874575314e+01
8.810000000000000000e+02	4.501812085572133526e+01
8.820000000000000000e+02	4.267941400214720460e+01
8.830000000000000000e+02	4.045189152335753846e+01
8.840000000000000000e+02	3.833085627708638299e+01
8.850000000000000000e+02	3.631177755807139818e+01
8.860000000000000000e+02	3.439028686824907766e+01
8.870000000000000000e+02	3.256217370802134781e+01
8.880000000000000000e+02	3.082338139374675379e+01
8.890000000000000000e+02	2.917000290629353998e+01
8.900000000000000000e+02	2.759827677518013900e+01
8.910000000000000000e+02	2.610458300252667385e+01
8.920000000000000000e+02	2.468543903074568746e+01
8.930000000000000000e+02	2.333749575761291695e+01
8.940000000000000000e+02	2.205753360208063540e+01
8.950000000000000000e+02	2.084245862392554827e+01
8.960000000000000000e+02	1.968929870006097715e+01
8.970000000000000000e+02	1.859519976009083564e+01
8.980000000000000000e+02	1.755742208343750121e+01
8.990000000000000000e+02	1.657333666014086404e+01
9.000000000000000000e+02	1.564042161719910240e+01
9.010000000000000000e+02	1.475625871210359819e+01
9.020000000000000000e+02	1.391852989501185078e+01
9.030000000000000000e+02	1.312501394080213579e+01
9.040000000000000000e+02	1.237358315206244797e+01
9.050000000000000000e+02	1.166220013388350196e+01
9.060000000000000000e+02	1.098891464115202687e+01
9.070000000000000000e+02	1.035186049887499493e+01
9.080000000000000000e+02	9.749252595908624031e+00
9.090000000000000000e+02	9.179383952317214934e+00
9.100000000000000000e+02	8.640622860446454112e+00
9.110000000000000000e+02	8.131410099663371582e+00
9.120000000000000000e+02	7.650256224590082255e+00
9.130000000000000000e+02	7.195738926541709546e+00
9.140000000000000000e+02	6.766500467769033911e+00
9.150000000000000000e+02	6.361245188003987749e+00
9.160000000000000000e+02	5.978737082710885886e+00
9.170000000000000000e+02	5.617797452357674359e+00
9.180000000000000000e+02	5.277302621939629290e+00
9.190000000000000000e+02	4.956181729912505496e+00
9.200000000000000000e+02	4.653414585622846822e+00
9.210000000000000000e+02	4.368029594259970061e+00
9.220000000000000000e+02	4.099101748296459569e+00
9.230000000000000000e+02	3.845750684332327474e+00
9.240000000000000000e+02	3.607138804211035499e+00
9.250000000000000000e+02	3.382469459234230591e+00
9.260000000000000000e+02	3.170985196265279971e+00
9.270000000000000000e+02	2.971966064479715897e+00
9.280000000000000000e+02	2.784727981493002158e+00
9.290000000000000000e+02	2.608621157572903027e+00
9.300000000000000000e+02	2.443028576624054260e+00
9.310000000000000000e+02	2.287364532617222945e+00
9.320000000000000000e+02	2.141073220123283161e+00
9.330000000000000000e+02	2.003627377603877324e+00
9.340000000000000000e+02	1.874526982105098272e+00
9.350000000000000000e+02	1.753297993998247373e+00
9.360000000000000000e+02	1.639491150412277776e+00
9.370000000000000000e+02	1.532680806005635388e+00
9.380000000000000000e+02	1.432463819730731114e+00
9.390000000000000000e+02	1.338458486252366297e+00
9.400000000000000000e+02	1.250303510691175068e+00
9.410000000000000000e+02	1.167657025375415936e+00
9.420000000000000000e+02	1.090195647297996562e+00
9.430000000000000000e+02	1.017613574991308001e+00
9.440000000000000000e+02	9.496217235491772879e-01
9.450000000000000000e+02	8.859468965438300758e-01
9.460000000000000000e+02	8.263309936052422033e-01
9.470000000000000000e+02	7.705302524509893836e-01
9.480000000000000000e+02	7.183145241765247491e-01
9.490000000000000000e+02	6.694665806383038875e-01
9.500000000000000000e+02	6.237814527857301616e-01
9.510000000000000000e+02	5.810657988218104197e-01
9.520000000000000000e+02	5.411373010971642916e-01
9.530000000000000000e+02	5.038240906671124231e-01
9.540000000000000000e+02	4.689641984670803732e-01
9.550000000000000000e+02	4.364050320874011679e-01
9.560000000000000000e+02	4.060028771546392301e-01
9.570000000000000000e+02	3.776224223527708812e-01
9.580000000000000000e+02	3.511363071438868833e-01
9.590000000000000000e+02	3.264246912743544171e-01
9.600000000000000000e+02	3.033748451787244838e-01
9.610000000000000000e+02	2.818807604198077521e-01
9.620000000000000000e+02	2.618427793294583750e-01
9.630000000000000000e+02	2.431672430404089036e-01
9.640000000000000000e+02	2.257661571251660670e-01
9.650000000000000000e+02	2.095568740833272381e-01
9.660000000000000000e+02	1.944617919436939513e-01
9.670000000000000000e+02	1.804080682722931928e-01
9.680000000000000000e+02	1.673273489017094440e-01
9.690000000000000000e+02	1.551555107210766393e-01
9.700000000000000000e+02	1.438324178895594996e-01
9.710000000000000000e+02	1.333016908592096761e-01
9.720000000000000000e+02	1.235104876156767617e-01
9.730000000000000000e+02	1.144092965673398632e-01
9.740000000000000000e+02	1.059517405350507147e-01
9.750000000000000000e+02	9.809439131577442350e-02
9.760000000000000000e+02	9.079659431399896008e-02
9.770000000000000000e+02	8.402030275485498911e-02
9.780000000000000000e+02	7.772992101241063545e-02
9.790000000000000000e+02	7.189215660561780463e-02
9.800000000000000000e+02	6.647588043284125003e-02
9.810000000000000000e+02	6.145199483384014560e-02
9.820000000000000000e+02	5.679330908545672518e-02
9.830000000000000000e+02	5.247442195413117016e-02
9.840000000000000000e+02	4.847161094468933895e-02
9.850000000000000000e+02	4.476272790064630275e-02
9.860000000000000000e+02	4.132710062655684663e-02
9.870000000000000000e+02	3.814544021769653709e-02
9.880000000000000000e+02	3.519975379662176190e-02
9.890000000000000000e+02	3.247326236989987042e-02
9.900000000000000000e+02	2.995032353156572985e-02
9.910000000000000000e+02	2.761635875263217937e-02
9.920000000000000000e+02	2.545778500827869037e-02
9.930000000000000000e+02	2.346195050617753963e-02
9.940000000000000000e+02	2.161707429078955564e-02
9.950000000000000000e+02	1.991218950939517215e-02
9.960000000000000000e+02	1.833709013611923774e-02
9.970000000000000000e+02	1.688228096028249886e-02
9.980000000000000000e+02	1.553893065507047644e-02
9.990000000000000000e+02	1.429882775176719890e-02
1.000000000000000000e+03	1.315433935367037351e-02
