4.410000000000000000e+02	2.487135531814898854e+02
4.420000000000000000e+02	2.549940690395958143e+02
4.430000000000000000e+02	2.613967320156552887e+02
4.440000000000000000e+02	2.679228014028987559e+02
4.450000000000000000e+02	2.745735157650250358e+02
4.460000000000000000e+02	2.813500917194153317e+02
4.470000000000000000e+02	2.882537227055434528e+02
4.480000000000000000e+02	2.952855777392605887e+02
4.490000000000000000e+02	3.024468001536571364e+02
4.500000000000000000e+02	3.097385063272429306e+02
4.510000000000000000e+02	3.171617844002084894e+02
4.520000000000000000e+02	3.247176929795692217e+02
4.530000000000000000e+02	3.324072598340168838e+02
4.540000000000000000e+02	3.402314805793388359e+02
4.550000000000000000e+02	3.481913173552932221e+02
4.560000000000000000e+02	3.562876974948546263e+02
4.570000000000000000e+02	3.645215121867811945e+02
4.580000000000000000e+02	3.728936151324738262e+02
4.590000000000000000e+02	3.814048211981352097e+02
4.600000000000000000e+02	3.900559050632591607e+02
4.610000000000000000e+02	3.988475998665070392e+02
4.620000000000000000e+02	4.077805958500614452e+02
4.630000000000000000e+02	4.168555390035659229e+02
4.640000000000000000e+02	4.260730297087899885e+02
4.650000000000000000e+02	4.354336213861811871e+02
4.660000000000000000e+02	4.449378191444916979e+02
4.670000000000000000e+02	4.545860784346878063e+02
4.680000000000000000e+02	4.643788037093779053e+02
4.690000000000000000e+02	4.743163470890082181e+02
4.700000000000000000e+02	4.843990070361041944e+02
4.710000000000000000e+02	4.946270270388521340e+02
4.720000000000000000e+02	5.050005943053294573e+02
4.730000000000000000e+02	5.155198384697193887e+02
4.740000000000000000e+02	5.261848303118523518e+02
4.750000000000000000e+02	5.369955804914386590e+02
4.760000000000000000e+02	5.479520382983763511e+02
4.770000000000000000e+02	5.590540904205837478e+02
4.780000000000000000e+02	5.703015597312275986e+02
4.790000000000000000e+02	5.816942040999905430e+02
4.800000000000000000e+02	5.932317152506694811e+02
4.810000000000000000e+02	6.049137177917324379e+02
4.820000000000000000e+02	6.167397691198397069e+02
4.830000000000000000e+02	6.287093638196271286e+02
4.840000000000000000e+02	6.408219599921472991e+02
4.850000000000000000e+02	6.530771052903730833e+02
4.860000000000000000e+02	6.654749839457157350e+02
4.870000000000000000e+02	6.780186112627091006e+02
4.880000000000000000e+02	6.907219929113649641e+02
4.890000000000000000e+02	7.036382241208968935e+02
4.900000000000000000e+02	7.169489788118920615e+02
4.910000000000000000e+02	7.312274992472579243e+02
4.920000000000000000e+02	7.481497621418085373e+02
4.930000000000000000e+02	7.722574451591975730e+02
4.940000000000000000e+02	8.149439318942197588e+02
4.950000000000000000e+02	9.026139647780117912e+02
4.960000000000000000e+02	1.091638684265689562e+03
4.970000000000000000e+02	1.492441355525601921e+03
4.980000000000000000e+02	2.302380612504823148e+03
4.990000000000000000e+02	3.840609124518611679e+03
5.000000000000000000e+02	6.567819792079421859e+03
5.010000000000000000e+02	1.106333082345172443e+04
5.020000000000000000e+02	1.792941051033807526e+04
5.030000000000000000e+02	2.760818392714282163e+04
5.040000000000000000e+02	4.013470563205931830e+04
5.050000000000000000e+02	5.490139374188998045e+04
5.060000000000000000e+02	7.054731403141748160e+04
5.070000000000000000e+02	8.507732527552566899e+04
5.080000000000000000e+02	9.624356577025413571e+04
5.090000000000000000e+02	1.021052475544688059e+05
5.100000000000000000e+02	1.015792627452971647e+05
5.110000000000000000e+02	9.476768571551392961e+04
5.120000000000000000e+02	8.292636610624029709e+04
5.130000000000000000e+02	6.808786143057821027e+04
5.140000000000000000e+02	5.249397283792433154e+04
5.150000000000000000e+02	3.805462065240922675e+04
5.160000000000000000e+02	2.600727334673798759e+04
5.170000000000000000e+02	1.684075664774472534e+04
5.180000000000000000e+02	1.043486165572471327e+04
5.190000000000000000e+02	6.305002164000927223e+03
5.200000000000000000e+02	3.842375779266548307e+03
5.210000000000000000e+02	2.482943204537346901e+03
5.220000000000000000e+02	1.789364822018198083e+03
5.230000000000000000e+02	1.464682045849764336e+03
5.240000000000000000e+02	1.328407765331266091e+03
5.250000000000000000e+02	1.281123333199274384e+03
5.260000000000000000e+02	1.272806510909398639e+03
5.270000000000000000e+02	1.280344979166274697e+03
5.280000000000000000e+02	1.293894408483074812e+03
5.290000000000000000e+02	1.309577558195437632e+03
5.300000000000000000e+02	1.325978147052067925e+03
5.310000000000000000e+02	1.342614217649419288e+03
5.320000000000000000e+02	1.359331282586721954e+03
5.330000000000000000e+02	1.376081027438268165e+03
5.340000000000000000e+02	1.392847016478320484e+03
5.350000000000000000e+02	1.409621668042244437e+03
5.360000000000000000e+02	1.426399654170966414e+03
5.370000000000000000e+02	1.443176148246189314e+03
5.380000000000000000e+02	1.459946394378617924e+03
5.390000000000000000e+02	1.476705610321042059e+03
5.400000000000000000e+02	1.493448968424194391e+03
5.410000000000000000e+02	1.510171593577434123e+03
5.420000000000000000e+02	1.526868564620782990e+03
5.430000000000000000e+02	1.543534916454081213e+03
5.440000000000000000e+02	1.560165642313630542e+03
5.450000000000000000e+02	1.576755696121446135e+03
5.460000000000000000e+02	1.593299994890325252e+03
5.470000000000000000e+02	1.609793421180918358e+03
5.480000000000000000e+02	1.626230825608941814e+03
5.490000000000000000e+02	1.642607029400912552e+03
5.500000000000000000e+02	1.658916826996748796e+03
5.510000000000000000e+02	1.675154988697524004e+03
5.520000000000000000e+02	1.691316263356610534e+03
5.530000000000000000e+02	1.707395381112372661e+03
5.540000000000000000e+02	1.723387056160526299e+03
5.550000000000000000e+02	1.739285989564210013e+03
5.560000000000000000e+02	1.755086872099775746e+03
5.570000000000000000e+02	1.770784387136229270e+03
5.580000000000000000e+02	1.786373213546220086e+03
5.590000000000000000e+02	1.801848028646419152e+03
5.600000000000000000e+02	1.817203511165075270e+03
5.610000000000000000e+02	1.832434344234497985e+03
5.620000000000000000e+02	1.847535218406167814e+03
5.630000000000000000e+02	1.862500834686137068e+03
5.640000000000000000e+02	1.877325907588335895e+03
5.650000000000000000e+02	1.892005168203372477e+03
5.660000000000000000e+02	1.906533367280372659e+03
5.670000000000000000e+02	1.920905278319374929e+03
5.680000000000000000e+02	1.935115700671768536e+03
5.690000000000000000e+02	1.949159462646229258e+03
5.700000000000000000e+02	1.963031424617591711e+03
5.710000000000000000e+02	1.976726482136064533e+03
5.720000000000000000e+02	1.990239569034186161e+03
5.730000000000000000e+02	2.003565660528893432e+03
5.740000000000000000e+02	2.016699776316064799e+03
5.750000000000000000e+02	2.029636983654893584e+03
5.760000000000000000e+02	2.042372400439429839e+03
5.770000000000000000e+02	2.054901198254632163e+03
5.780000000000000000e+02	2.067218605414265312e+03
5.790000000000000000e+02	2.079319909977979023e+03
5.800000000000000000e+02	2.091200462744910510e+03
5.810000000000000000e+02	2.102855680221161037e+03
5.820000000000000000e+02	2.114281047558495629e+03
5.830000000000000000e+02	2.125472121461647475e+03
5.840000000000000000e+02	2.136424533061606780e+03
5.850000000000000000e+02	2.147133990752297905e+03
5.860000000000000000e+02	2.157596282988080929e+03
5.870000000000000000e+02	2.167807281039518784e+03
5.880000000000000000e+02	2.177762941704895184e+03
5.890000000000000000e+02	2.187459309974999542e+03
5.900000000000000000e+02	2.196892521648710954e+03
5.910000000000000000e+02	2.206058805896973809e+03
5.920000000000000000e+02	2.214954487772781249e+03
5.930000000000000000e+02	2.223575990664831352e+03
5.940000000000000000e+02	2.231919838692557278e+03
5.950000000000000000e+02	2.239982659040301314e+03
5.960000000000000000e+02	2.247761184228427737e+03
5.970000000000000000e+02	2.255252254319240365e+03
5.980000000000000000e+02	2.262452819055616601e+03
5.990000000000000000e+02	2.269359939930340715e+03
6.000000000000000000e+02	2.275970792184160928e+03
6.010000000000000000e+02	2.282282666730676283e+03
6.020000000000000000e+02	2.288292972006215678e+03
6.030000000000000000e+02	2.293999235742939618e+03
6.040000000000000000e+02	2.299399106663468956e+03
6.050000000000000000e+02	2.304490356095410334e+03
6.060000000000000000e+02	2.309270879504233108e+03
6.070000000000000000e+02	2.313738697943014358e+03
6.080000000000000000e+02	2.317891959417661838e+03
6.090000000000000000e+02	2.321728940166289703e+03
6.100000000000000000e+02	2.325248045851512416e+03
6.110000000000000000e+02	2.328447812664502635e+03
6.120000000000000000e+02	2.331326908339745842e+03
6.130000000000000000e+02	2.333884133079496223e+03
6.140000000000000000e+02	2.336118420387052538e+03
6.150000000000000000e+02	2.338028837808025401e+03
6.160000000000000000e+02	2.339614587578892042e+03
6.170000000000000000e+02	2.340875007182190075e+03
6.180000000000000000e+02	2.341809569807826847e+03
6.190000000000000000e+02	2.342417884720040547e+03
6.200000000000000000e+02	2.342699697529660625e+03
6.210000000000000000e+02	2.342654890371404235e+03
6.220000000000000000e+02	2.342283481986032712e+03
6.230000000000000000e+02	2.341585627707286676e+03
6.240000000000000000e+02	2.340561619353617061e+03
6.250000000000000000e+02	2.339211885024814819e+03
6.260000000000000000e+02	2.337536988803734857e+03
6.270000000000000000e+02	2.335537630363412518e+03
6.280000000000000000e+02	2.333214644479948220e+03
6.290000000000000000e+02	2.330569000451640932e+03
6.300000000000000000e+02	2.327601801424930272e+03
6.310000000000000000e+02	2.324314283627810710e+03
6.320000000000000000e+02	2.320707815511456374e+03
6.330000000000000000e+02	2.316783896800895036e+03
6.340000000000000000e+02	2.312544157455656205e+03
6.350000000000000000e+02	2.307990356541388337e+03
6.360000000000000000e+02	2.303124381013561106e+03
6.370000000000000000e+02	2.297948244414405963e+03
6.380000000000000000e+02	2.292464085484371935e+03
6.390000000000000000e+02	2.286674166689428148e+03
6.400000000000000000e+02	2.280580872665638708e+03
6.410000000000000000e+02	2.274186708582500160e+03
6.420000000000000000e+02	2.267494298426619480e+03
6.430000000000000000e+02	2.260506383207374711e+03
6.440000000000000000e+02	2.253225819086280808e+03
6.450000000000000000e+02	2.245655575431839679e+03
6.460000000000000000e+02	2.237798732801736605e+03
6.470000000000000000e+02	2.229658480854297068e+03
6.480000000000000000e+02	2.221238116191187601e+03
6.490000000000000000e+02	2.212541040133400656e+03
6.500000000000000000e+02	2.203570756432627149e+03
6.510000000000000000e+02	2.194330868920166722e+03
6.520000000000000000e+02	2.184825079095583078e+03
6.530000000000000000e+02	2.175057183657368114e+03
6.540000000000000000e+02	2.165031071977909050e+03
6.550000000000000000e+02	2.154750723525115973e+03
6.560000000000000000e+02	2.144220205233095840e+03
6.570000000000000000e+02	2.133443668824302677e+03
6.580000000000000000e+02	2.122425348085626865e+03
6.590000000000000000e+02	2.111169556100927821e+03
6.600000000000000000e+02	2.099680682442529815e+03
6.610000000000000000e+02	2.087963190324242532e+03
6.620000000000000000e+02	2.076021613718480239e+03
6.630000000000000000e+02	2.063860554440084798e+03
6.640000000000000000e+02	2.051484679199465518e+03
6.650000000000000000e+02	2.038898716627694284e+03
6.660000000000000000e+02	2.026107454276195767e+03
6.670000000000000000e+02	2.013115735593692989e+03
6.680000000000000000e+02	1.999928456883063518e+03
6.690000000000000000e+02	1.986550564240772474e+03
6.700000000000000000e+02	1.972987050481545566e+03
6.710000000000000000e+02	1.959242952050942449e+03
6.720000000000000000e+02	1.945323345928483832e+03
6.730000000000000000e+02	1.931233346523981027e+03
6.740000000000000000e+02	1.916978102569700241e+03
6.750000000000000000e+02	1.902562794010981861e+03
6.760000000000000000e+02	1.887992628897917484e+03
6.770000000000000000e+02	1.873272840280666969e+03
6.780000000000000000e+02	1.858408683110976654e+03
6.790000000000000000e+02	1.843405431152430765e+03
6.800000000000000000e+02	1.828268373901942141e+03
6.810000000000000000e+02	1.813002813524962448e+03
6.820000000000000000e+02	1.797614061806847076e+03
6.830000000000000000e+02	1.782107437122788269e+03
6.840000000000000000e+02	1.766488261428679834e+03
6.850000000000000000e+02	1.750761857275248076e+03
6.860000000000000000e+02	1.734933544847726807e+03
6.870000000000000000e+02	1.719008639033327427e+03
6.880000000000000000e+02	1.702992446518690031e+03
6.890000000000000000e+02	1.686890262919467887e+03
6.900000000000000000e+02	1.670707369944135053e+03
6.910000000000000000e+02	1.654449032594063965e+03
6.920000000000000000e+02	1.638120496401855235e+03
6.930000000000000000e+02	1.621726984709861199e+03
6.940000000000000000e+02	1.605273695990765646e+03
6.950000000000000000e+02	1.588765801212043471e+03
6.960000000000000000e+02	1.572208441246051507e+03
6.970000000000000000e+02	1.555606724327440816e+03
6.980000000000000000e+02	1.538965723559526168e+03
6.990000000000000000e+02	1.522290474471167727e+03
7.000000000000000000e+02	1.505585972625674231e+03
7.010000000000000000e+02	1.488857171283153320e+03
7.020000000000000000e+02	1.472108979117678700e+03
7.030000000000000000e+02	1.455346257990568120e+03
7.040000000000000000e+02	1.438573820781005224e+03
7.050000000000000000e+02	1.421796429275161472e+03
7.060000000000000000e+02	1.405018792114908138e+03
7.070000000000000000e+02	1.388245562807138413e+03
7.080000000000000000e+02	1.371481337794645697e+03
7.090000000000000000e+02	1.354730654589441428e+03
7.100000000000000000e+02	1.337997989969312130e+03
7.110000000000000000e+02	1.321287758238355309e+03
7.120000000000000000e+02	1.304604309552159521e+03
7.130000000000000000e+02	1.287951928308219522e+03
7.140000000000000000e+02	1.271334831602113127e+03
7.150000000000000000e+02	1.254757167749889277e+03
7.160000000000000000e+02	1.238223014877052265e+03
7.170000000000000000e+02	1.221736379574457033e+03
7.180000000000000000e+02	1.205301195621354964e+03
7.190000000000000000e+02	1.188921322775772069e+03
7.200000000000000000e+02	1.172600545632325293e+03
7.210000000000000000e+02	1.156342572547517648e+03
7.220000000000000000e+02	1.140151034632491928e+03
7.230000000000000000e+02	1.124029484813148883e+03
7.240000000000000000e+02	1.107981396957481365e+03
7.250000000000000000e+02	1.092010165069903906e+03
7.260000000000000000e+02	1.076119102552302138e+03
7.270000000000000000e+02	1.060311441531463288e+03
7.280000000000000000e+02	1.044590332252487997e+03
7.290000000000000000e+02	1.028958842537728287e+03
7.300000000000000000e+02	1.013419957310736663e+03
7.310000000000000000e+02	9.979765781846617756e+02
7.320000000000000000e+02	9.826315231144616291e+02
7.330000000000000000e+02	9.673875261122659595e+02
7.340000000000000000e+02	9.522472370251575740e+02
7.350000000000000000e+02	9.372132213745984473e+02
7.360000000000000000e+02	9.222879602566786161e+02
7.370000000000000000e+02	9.074738503023164640e+02
7.380000000000000000e+02	8.927732036965007865e+02
7.390000000000000000e+02	8.781882482556136438e+02
7.400000000000000000e+02	8.637211275618411719e+02
7.410000000000000000e+02	8.493739011536337102e+02
7.420000000000000000e+02	8.351485447711435199e+02
7.430000000000000000e+02	8.210469506555275530e+02
7.440000000000000000e+02	8.070709279009770398e+02
7.450000000000000000e+02	7.932222028582942812e+02
7.460000000000000000e+02	7.795024195888147460e+02
7.470000000000000000e+02	7.659131403674407466e+02
7.480000000000000000e+02	7.524558462335238573e+02
7.490000000000000000e+02	7.391319375883166458e+02
7.500000000000000000e+02	7.259427348376834743e+02
7.510000000000000000e+02	7.128894790787404645e+02
7.520000000000000000e+02	6.999733328290838017e+02
7.530000000000000000e+02	6.871953807972353161e+02
7.540000000000000000e+02	6.745566306929300708e+02
7.550000000000000000e+02	6.620580140758497691e+02
7.560000000000000000e+02	6.497003872413993122e+02
7.570000000000000000e+02	6.374845321421090603e+02
7.580000000000000000e+02	6.254111573432401201e+02
7.590000000000000000e+02	6.134808990111622506e+02
7.600000000000000000e+02	6.016943219330701140e+02
7.610000000000000000e+02	5.900519205665989375e+02
7.620000000000000000e+02	5.785541201178975825e+02
7.630000000000000000e+02	5.672012776467252024e+02
7.640000000000000000e+02	5.559936831971255060e+02
7.650000000000000000e+02	5.449315609522500381e+02
7.660000000000000000e+02	5.340150704118976819e+02
7.670000000000000000e+02	5.232443075913450912e+02
7.680000000000000000e+02	5.126193062400548115e+02
7.690000000000000000e+02	5.021400390788513732e+02
7.700000000000000000e+02	4.918064190541695666e+02
7.710000000000000000e+02	4.816183006079888855e+02
7.720000000000000000e+02	4.715754809620840433e+02
7.730000000000000000e+02	4.616777014152321499e+02
7.740000000000000000e+02	4.519246486520337953e+02
7.750000000000000000e+02	4.423159560620263733e+02
7.760000000000000000e+02	4.328512050677759362e+02
7.770000000000000000e+02	4.235299264606658198e+02
7.780000000000000000e+02	4.143516017431052205e+02
7.790000000000000000e+02	4.053156644759179130e+02
7.800000000000000000e+02	3.964215016296777208e+02
7.810000000000000000e+02	3.876684549387911716e+02
7.820000000000000000e+02	3.790558222571469855e+02
7.830000000000000000e+02	3.705828589141739258e+02
7.840000000000000000e+02	3.622487790701803192e+02
7.850000000000000000e+02	3.540527570698660043e+02
7.860000000000000000e+02	3.459939287929319676e+02
7.870000000000000000e+02	3.380713930007325985e+02
7.880000000000000000e+02	3.302842126779491423e+02
7.890000000000000000e+02	3.226314163682866933e+02
7.900000000000000000e+02	3.151119995032274801e+02
7.910000000000000000e+02	3.077249257229028672e+02
7.920000000000000000e+02	3.004691281881722489e+02
7.930000000000000000e+02	2.933435108830326499e+02
7.940000000000000000e+02	2.863469499065048467e+02
7.950000000000000000e+02	2.794782947531809896e+02
7.960000000000000000e+02	2.727363695816398490e+02
7.970000000000000000e+02	2.661199744699744087e+02
7.980000000000000000e+02	2.596278866577006852e+02
7.990000000000000000e+02	2.532588617733515264e+02
8.000000000000000000e+02	2.470116350470882765e+02
8.010000000000000000e+02	2.408849225076936591e+02
8.020000000000000000e+02	2.348774221633393893e+02
8.030000000000000000e+02	2.289878151655550766e+02
8.040000000000000000e+02	2.232147669558516156e+02
8.050000000000000000e+02	2.175569283944860217e+02
8.060000000000000000e+02	2.120129368708827542e+02
8.070000000000000000e+02	2.065814173952558406e+02
8.080000000000000000e+02	2.012609836710098250e+02
8.090000000000000000e+02	1.960502391475192496e+02
8.100000000000000000e+02	1.909477780529249173e+02
8.110000000000000000e+02	1.859521864066048238e+02
8.120000000000000000e+02	1.810620430110129746e+02
8.130000000000000000e+02	1.762759204226023542e+02
8.140000000000000000e+02	1.715923859015786945e+02
8.150000000000000000e+02	1.670100023402580405e+02
8.160000000000000000e+02	1.625273291698261744e+02
8.170000000000000000e+02	1.581429232453267559e+02
8.180000000000000000e+02	1.538553397087287635e+02
8.190000000000000000e+02	1.496631328299488644e+02
8.200000000000000000e+02	1.455648568257302315e+02
8.210000000000000000e+02	1.415590666563017521e+02
8.220000000000000000e+02	1.376443187997669497e+02
8.230000000000000000e+02	1.338191720041918416e+02
8.240000000000000000e+02	1.300821880173865850e+02
8.250000000000000000e+02	1.264319322943951818e+02
8.260000000000000000e+02	1.228669746827291220e+02
8.270000000000000000e+02	1.193858900854011154e+02
8.280000000000000000e+02	1.159872591018358747e+02
8.290000000000000000e+02	1.126696686467523705e+02
8.300000000000000000e+02	1.094317125471314824e+02
8.310000000000000000e+02	1.062719921174010835e+02
8.320000000000000000e+02	1.031891167129871718e+02
8.330000000000000000e+02	1.001817042623963658e+02
8.340000000000000000e+02	9.724838177801039762e+01
8.350000000000000000e+02	9.438778584579054609e+01
8.360000000000000000e+02	9.159856309410177744e+01
8.370000000000000000e+02	8.887937064188170666e+01
8.380000000000000000e+02	8.622887652639315093e+01
8.390000000000000000e+02	8.364576011081061324e+01
8.400000000000000000e+02	8.112871247190381041e+01
8.410000000000000000e+02	7.867643676809157682e+01
8.420000000000000000e+02	7.628764858815199545e+01
8.430000000000000000e+02	7.396107628088272179e+01
8.440000000000000000e+02	7.169546126601616720e+01
8.450000000000000000e+02	6.948955832670223742e+01
8.460000000000000000e+02	6.734213588387983407e+01
8.470000000000000000e+02	6.525197625286662628e+01
8.480000000000000000e+02	6.321787588250151657e+01
8.490000000000000000e+02	6.123864557718347612e+01
8.500000000000000000e+02	5.931311070215353709e+01
8.510000000000000000e+02	5.744011137237414744e+01
8.520000000000000000e+02	5.561850262536328415e+01
8.530000000000000000e+02	5.384715457834567331e+01
8.540000000000000000e+02	5.212495257008753669e+01
8.550000000000000000e+02	5.045079728778250683e+01
8.560000000000000000e+02	4.882360487936192328e+01
8.570000000000000000e+02	4.724230705160193367e+01
8.580000000000000000e+02	4.570585115440367474e+01
8.590000000000000000e+02	4.421320025162243894e+01
8.600000000000000000e+02	4.276333317882368590e+01
8.610000000000000000e+02	4.135524458834337480e+01
8.620000000000000000e+02	3.998794498202992997e+01
8.630000000000000000e+02	3.866046073204504552e+01
8.640000000000000000e+02	3.737183409009944057e+01
8.650000000000000000e+02	3.612112318549802126e+01
8.660000000000000000e+02	3.490740201236769025e+01
8.670000000000000000e+02	3.372976040643908391e+01
8.680000000000000000e+02	3.258730401175048996e+01
8.690000000000000000e+02	3.147915423764004572e+01
8.700000000000000000e+02	3.040444820638943924e+01
8.710000000000000000e+02	2.936233869187849166e+01
8.720000000000000000e+02	2.835199404960693315e+01
8.730000000000000000e+02	2.737259813843534317e+01
8.740000000000000000e+02	2.642335023439365216e+01
8.750000000000000000e+02	2.550346493690083705e+01
8.760000000000000000e+02	2.461217206773516253e+01
8.770000000000000000e+02	2.374871656308911838e+01
8.780000000000000000e+02	2.291235835903871276e+01
8.790000000000000000e+02	2.210237227075144872e+01
8.800000000000000000e+02	2.131804786575157706e+01
8.810000000000000000e+02	2.055868933155626976e+01
8.820000000000000000e+02	1.982361533799042874e+01
8.830000000000000000e+02	1.911215889448186900e+01
8.840000000000000000e+02	1.842366720263315116e+01
8.850000000000000000e+02	1.775750150435993646e+01
8.860000000000000000e+02	1.711303692587939196e+01
8.870000000000000000e+02	1.648966231782699765e+01
8.880000000000000000e+02	1.588678009177212580e+01
8.890000000000000000e+02	1.530380605339804845e+01
8.900000000000000000e+02	1.474016923260454703e+01
8.910000000000000000e+02	1.419531171078506304e+01
8.920000000000000000e+02	1.366868844552403139e+01
8.930000000000000000e+02	1.315976709295328995e+01
8.940000000000000000e+02	1.266802782799974203e+01
8.950000000000000000e+02	1.219296316275034009e+01
8.960000000000000000e+02	1.173407776315329265e+01
8.970000000000000000e+02	1.129088826426819381e+01
8.980000000000000000e+02	1.086292308427121078e+01
8.990000000000000000e+02	1.044972223741465989e+01
9.000000000000000000e+02	1.005083714613391166e+01
9.010000000000000000e+02	9.665830452488332725e+00
9.020000000000000000e+02	9.294275829116017462e+00
9.030000000000000000e+02	8.935757789876124235e+00
9.040000000000000000e+02	8.589871500346101030e+00
9.050000000000000000e+02	8.256222588334736656e+00
9.060000000000000000e+02	7.934426954565954482e+00
9.070000000000000000e+02	7.624110583681900977e+00
9.080000000000000000e+02	7.324909355707982961e+00
9.090000000000000000e+02	7.036468858116477598e+00
9.100000000000000000e+02	6.758444198619371512e+00
9.110000000000000000e+02	6.490499818815222532e+00
9.120000000000000000e+02	6.232309308809450776e+00
9.130000000000000000e+02	5.983555222921280503e+00
9.140000000000000000e+02	5.743928896585496879e+00
9.150000000000000000e+02	5.513130264551588944e+00
9.160000000000000000e+02	5.290867680477425061e+00
9.170000000000000000e+02	5.076857738009468157e+00
9.180000000000000000e+02	4.870825093436581987e+00
9.190000000000000000e+02	4.672502289999110658e+00
9.200000000000000000e+02	4.481629583930414107e+00
9.210000000000000000e+02	4.297954772302997384e+00
9.220000000000000000e+02	4.121233022746843666e+00
9.230000000000000000e+02	3.951226705102958814e+00
9.240000000000000000e+02	3.787705225070765014e+00
9.250000000000000000e+02	3.630444859903550814e+00
9.260000000000000000e+02	3.479228596202178281e+00
9.270000000000000000e+02	3.333845969852992308e+00
9.280000000000000000e+02	3.194092908151989096e+00
9.290000000000000000e+02	3.059771574153558493e+00
9.300000000000000000e+02	2.930690213278196232e+00
9.310000000000000000e+02	2.806663002210174618e+00
9.320000000000000000e+02	2.687509900112543093e+00
9.330000000000000000e+02	2.573056502183521221e+00
9.340000000000000000e+02	2.463133895575117638e+00
9.350000000000000000e+02	2.357578517691580888e+00
9.360000000000000000e+02	2.256232016882341096e+00
9.370000000000000000e+02	2.158941115541220146e+00
9.380000000000000000e+02	2.065557475620748207e+00
9.390000000000000000e+02	1.975937566567898873e+00
9.400000000000000000e+02	1.889942535684866254e+00
9.410000000000000000e+02	1.807438080916095924e+00
9.420000000000000000e+02	1.728294326060342279e+00
9.430000000000000000e+02	1.652385698404381209e+00
9.440000000000000000e+02	1.579590808772688648e+00
9.450000000000000000e+02	1.509792333985495949e+00
9.460000000000000000e+02	1.442876901715528959e+00
9.470000000000000000e+02	1.378734977731986389e+00
9.480000000000000000e+02	1.317260755518465443e+00
9.490000000000000000e+02	1.258352048249907318e+00
9.500000000000000000e+02	1.201910183112013586e+00
9.510000000000000000e+02	1.147839897945139187e+00
9.520000000000000000e+02	1.096049240193176733e+00
9.530000000000000000e+02	1.046449468136706029e+00
9.540000000000000000e+02	9.989549543883682325e-01
9.550000000000000000e+02	9.534830916272939438e-01
9.560000000000000000e+02	9.099542005483188811e-01
9.570000000000000000e+02	8.682914400007044620e-01
9.580000000000000000e+02	8.284207192901362760e-01
9.590000000000000000e+02	7.902706126169415368e-01
9.600000000000000000e+02	7.537722756226080678e-01
9.610000000000000000e+02	7.188593640160046983e-01
9.620000000000000000e+02	6.854679542500364819e-01
9.630000000000000000e+02	6.535364662188088980e-01
9.640000000000000000e+02	6.230055879449176715e-01
9.650000000000000000e+02	5.938182022259068660e-01
9.660000000000000000e+02	5.659193152085874035e-01
9.670000000000000000e+02	5.392559868594689609e-01
9.680000000000000000e+02	5.137772632992795296e-01
9.690000000000000000e+02	4.894341109692477154e-01
9.700000000000000000e+02	4.661793525966272389e-01
9.710000000000000000e+02	4.439676049267121116e-01
9.720000000000000000e+02	4.227552181885232407e-01
9.730000000000000000e+02	4.025002172611995555e-01
9.740000000000000000e+02	3.831622445081061534e-01
9.750000000000000000e+02	3.647025042456352173e-01
9.760000000000000000e+02	3.470837088137292414e-01
9.770000000000000000e+02	3.302700262151713750e-01
9.780000000000000000e+02	3.142270292908242446e-01
9.790000000000000000e+02	2.989216463980793326e-01
9.800000000000000000e+02	2.843221135599597327e-01
9.810000000000000000e+02	2.703979280524818618e-01
9.820000000000000000e+02	2.571198033981043074e-01
9.830000000000000000e+02	2.444596257332934675e-01
9.840000000000000000e+02	2.323904115185357888e-01
9.850000000000000000e+02	2.208862665593509245e-01
9.860000000000000000e+02	2.099223463072056595e-01
9.870000000000000000e+02	1.994748174095053450e-01
9.880000000000000000e+02	1.895208204782037886e-01
9.890000000000000000e+02	1.800384340469052546e-01
9.900000000000000000e+02	1.710066396867037097e-01
9.910000000000000000e+02	1.624052882513861706e-01
9.920000000000000000e+02	1.542150672230250819e-01
9.930000000000000000e+02	1.464174691293712027e-01
9.940000000000000000e+02	1.389947610049026283e-01
9.950000000000000000e+02	1.319299548677856371e-01
9.960000000000000000e+02	1.252067791854493684e-01
9.970000000000000000e+02	1.188096513019201717e-01
9.980000000000000000e+02	1.127236508005039634e-01
9.990000000000000000e+02	1.069344937758604785e-01
1.000000000000000000e+03	1.014285079899790859e-01
