4.410000000000000000e+02	3.565652850406926433e+01
4.420000000000000000e+02	3.738576559634634577e+01
4.430000000000000000e+02	3.918963867128594103e+01
4.440000000000000000e+02	4.107087922672429414e+01
4.450000000000000000e+02	4.303229427369436166e+01
4.460000000000000000e+02	4.507676725531037931e+01
4.470000000000000000e+02	4.720725891756077175e+01
4.480000000000000000e+02	4.942680812845438965e+01
4.490000000000000000e+02	5.173853264188223733e+01
4.500000000000000000e+02	5.414562980247840329e+01
4.510000000000000000e+02	5.665137718768791331e+01
4.520000000000000000e+02	5.925913318317704181e+01
4.530000000000000000e+02	6.197233748765394523e+01
4.540000000000000000e+02	6.479451154310430638e+01
4.550000000000000000e+02	6.772925888638754088e+01
4.560000000000000000e+02	7.078026541808566208e+01
4.570000000000000000e+02	7.395129958444852036e+01
4.580000000000000000e+02	7.724621246823782883e+01
4.590000000000000000e+02	8.066893778423447259e+01
4.600000000000000000e+02	8.422349177514547591e+01
4.610000000000000000e+02	8.791397300362413603e+01
4.620000000000000000e+02	9.174456203609945248e+01
4.630000000000000000e+02	9.571952101410616365e+01
4.640000000000000000e+02	9.984319310880358955e+01
4.650000000000000000e+02	1.041200018543819397e+02
4.660000000000000000e+02	1.085544503560708449e+02
4.670000000000000000e+02	1.131511203684903393e+02
4.680000000000000000e+02	1.179146712401210806e+02
4.690000000000000000e+02	1.228498387197134605e+02
4.700000000000000000e+02	1.279614336205124232e+02
4.710000000000000000e+02	1.332543403382375118e+02
4.720000000000000000e+02	1.387335152188350662e+02
4.730000000000000000e+02	1.444039847721046215e+02
4.740000000000000000e+02	1.502708437274012567e+02
4.750000000000000000e+02	1.563392529277273582e+02
4.760000000000000000e+02	1.626144370586933974e+02
4.770000000000000000e+02	1.691016822092631458e+02
4.780000000000000000e+02	1.758063332634037295e+02
4.790000000000000000e+02	1.827337911348425905e+02
4.800000000000000000e+02	1.898895099329280072e+02
4.810000000000000000e+02	1.972789945597956773e+02
4.820000000000000000e+02	2.049078013279531945e+02
4.830000000000000000e+02	2.127815540277864841e+02
4.840000000000000000e+02	2.209060308977746558e+02
4.850000000000000000e+02	2.292875522314668899e+02
4.860000000000000000e+02	2.379345511346721196e+02
4.870000000000000000e+02	2.468634649559494392e+02
4.880000000000000000e+02	2.561192461927309409e+02
4.890000000000000000e+02	2.658416099816534484e+02
4.900000000000000000e+02	2.764632149570694537e+02
4.910000000000000000e+02	2.892575006705048963e+02
4.920000000000000000e+02	3.077337781432180464e+02
4.930000000000000000e+02	3.408965045455078666e+02
4.940000000000000000e+02	4.101909747155185073e+02
4.950000000000000000e+02	5.628920367544116061e+02
4.960000000000000000e+02	8.951426497534440614e+02
4.970000000000000000e+02	1.586535710079530190e+03
4.980000000000000000e+02	2.943293540677954297e+03
4.990000000000000000e+02	5.437529434738020427e+03
5.000000000000000000e+02	9.717146414531403934e+03
5.010000000000000000e+02	1.655068215584698919e+04
5.020000000000000000e+02	2.667449034956298419e+04
5.030000000000000000e+02	4.053660882052787201e+04
5.040000000000000000e+02	5.798366622543714038e+04
5.050000000000000000e+02	7.799717303413493210e+04
5.060000000000000000e+02	9.861891240433699568e+04
5.070000000000000000e+02	1.171760300138269085e+05
5.080000000000000000e+02	1.308145299057450029e+05
5.090000000000000000e+02	1.372096078442744038e+05
5.100000000000000000e+02	1.352132317283129669e+05
5.110000000000000000e+02	1.251916013926783780e+05
5.120000000000000000e+02	1.089163656463193911e+05
5.130000000000000000e+02	8.905393481693346985e+04
5.140000000000000000e+02	6.845491077308348031e+04
5.150000000000000000e+02	4.950259377292992576e+04
5.160000000000000000e+02	3.371796917703859799e+04
5.170000000000000000e+02	2.168546867779440799e+04
5.180000000000000000e+02	1.323451857235946773e+04
5.190000000000000000e+02	7.743121238673531479e+03
5.200000000000000000e+02	4.433701695791130078e+03
5.210000000000000000e+02	2.582396988392137700e+03
5.220000000000000000e+02	1.622602564912972412e+03
5.230000000000000000e+02	1.164595414797687681e+03
5.240000000000000000e+02	9.677299800910757313e+02
5.250000000000000000e+02	8.969737308423748345e+02
5.260000000000000000e+02	8.829400036771472742e+02
5.270000000000000000e+02	8.928079010623728209e+02
5.280000000000000000e+02	9.122333495478909526e+02
5.290000000000000000e+02	9.354082119555134796e+02
5.300000000000000000e+02	9.601489255840341457e+02
5.310000000000000000e+02	9.856919350740465688e+02
5.320000000000000000e+02	1.011788350068250793e+03
5.330000000000000000e+02	1.038362127090564627e+03
5.340000000000000000e+02	1.065390989708315601e+03
5.350000000000000000e+02	1.092868043809552319e+03
5.360000000000000000e+02	1.120790301683464804e+03
5.370000000000000000e+02	1.149155491530659901e+03
5.380000000000000000e+02	1.177961228511090212e+03
5.390000000000000000e+02	1.207204810188495458e+03
5.400000000000000000e+02	1.236883165490766260e+03
5.410000000000000000e+02	1.266992838952747434e+03
5.420000000000000000e+02	1.297529982701629024e+03
5.430000000000000000e+02	1.328490350233520530e+03
5.440000000000000000e+02	1.359869290794843209e+03
5.450000000000000000e+02	1.391661744158830288e+03
5.460000000000000000e+02	1.423862235773404791e+03
5.470000000000000000e+02	1.456464872289514005e+03
5.480000000000000000e+02	1.489463337484193517e+03
5.490000000000000000e+02	1.522850888593177842e+03
5.500000000000000000e+02	1.556620353067645510e+03
5.510000000000000000e+02	1.590764125769342627e+03
5.520000000000000000e+02	1.625274166617909941e+03
5.530000000000000000e+02	1.660141998703801846e+03
5.540000000000000000e+02	1.695358706879706006e+03
5.550000000000000000e+02	1.730914936842841826e+03
5.560000000000000000e+02	1.766800894719991902e+03
5.570000000000000000e+02	1.803006347166512569e+03
5.580000000000000000e+02	1.839520621989963729e+03
5.590000000000000000e+02	1.876332609308339443e+03
5.600000000000000000e+02	1.913430763252211136e+03
5.610000000000000000e+02	1.950803104219354736e+03
5.620000000000000000e+02	1.988437221689714988e+03
5.630000000000000000e+02	2.026320277607759635e+03
5.640000000000000000e+02	2.064439010338487606e+03
5.650000000000000000e+02	2.102779739202515429e+03
5.660000000000000000e+02	2.141328369594804371e+03
5.670000000000000000e+02	2.180070398690714228e+03
5.680000000000000000e+02	2.218990921742158207e+03
5.690000000000000000e+02	2.258074638965699705e+03
5.700000000000000000e+02	2.297305863023486836e+03
5.710000000000000000e+02	2.336668527096950584e+03
5.720000000000000000e+02	2.376146193552201566e+03
5.730000000000000000e+02	2.415722063195064948e+03
5.740000000000000000e+02	2.455378985112671671e+03
5.750000000000000000e+02	2.495099467097498291e+03
5.760000000000000000e+02	2.534865686648720384e+03
5.770000000000000000e+02	2.574659502544684528e+03
5.780000000000000000e+02	2.614462466979267447e+03
5.790000000000000000e+02	2.654255838253830916e+03
5.800000000000000000e+02	2.694020594015437837e+03
5.810000000000000000e+02	2.733737445030925301e+03
5.820000000000000000e+02	2.773386849485396851e+03
5.830000000000000000e+02	2.812949027792646575e+03
5.840000000000000000e+02	2.852403977903993109e+03
5.850000000000000000e+02	2.891731491100976200e+03
5.860000000000000000e+02	2.930911168256359360e+03
5.870000000000000000e+02	2.969922436546878544e+03
5.880000000000000000e+02	3.008744566600208600e+03
5.890000000000000000e+02	3.047356690057643846e+03
5.900000000000000000e+02	3.085737817533068210e+03
5.910000000000000000e+02	3.123866856947862289e+03
5.920000000000000000e+02	3.161722632220518790e+03
5.930000000000000000e+02	3.199283902288871104e+03
5.940000000000000000e+02	3.236529380442020283e+03
5.950000000000000000e+02	3.273437753938246715e+03
5.960000000000000000e+02	3.309987703884439270e+03
5.970000000000000000e+02	3.346157925351842550e+03
5.980000000000000000e+02	3.381927147702263028e+03
5.990000000000000000e+02	3.417274155098201845e+03
6.000000000000000000e+02	3.452177807169822245e+03
6.010000000000000000e+02	3.486617059811074341e+03
6.020000000000000000e+02	3.520570986076811550e+03
6.030000000000000000e+02	3.554018797152270508e+03
6.040000000000000000e+02	3.586939863365873407e+03
6.050000000000000000e+02	3.619313735215965607e+03
6.060000000000000000e+02	3.651120164381777158e+03
6.070000000000000000e+02	3.682339124688664469e+03
6.080000000000000000e+02	3.712950832997467387e+03
6.090000000000000000e+02	3.742935769987707317e+03
6.100000000000000000e+02	3.772274700804223812e+03
6.110000000000000000e+02	3.800948695536844752e+03
6.120000000000000000e+02	3.828939149502718010e+03
6.130000000000000000e+02	3.856227803300979758e+03
6.140000000000000000e+02	3.882796762609626967e+03
6.150000000000000000e+02	3.908628517694618040e+03
6.160000000000000000e+02	3.933705962601514784e+03
6.170000000000000000e+02	3.958012414000279477e+03
6.180000000000000000e+02	3.981531629654220978e+03
6.190000000000000000e+02	4.004247826484514007e+03
6.200000000000000000e+02	4.026145698202208223e+03
6.210000000000000000e+02	4.047210432480175768e+03
6.220000000000000000e+02	4.067427727638068518e+03
6.230000000000000000e+02	4.086783808813980613e+03
6.240000000000000000e+02	4.105265443597248122e+03
6.250000000000000000e+02	4.122859957097552979e+03
6.260000000000000000e+02	4.139555246426330996e+03
6.270000000000000000e+02	4.155339794567317767e+03
6.280000000000000000e+02	4.170202683613992122e+03
6.290000000000000000e+02	4.184133607352621766e+03
6.300000000000000000e+02	4.197122883170622117e+03
6.310000000000000000e+02	4.209161463270945205e+03
6.320000000000000000e+02	4.220240945174346052e+03
6.330000000000000000e+02	4.230353581492448939e+03
6.340000000000000000e+02	4.239492288955692857e+03
6.350000000000000000e+02	4.247650656681452347e+03
6.360000000000000000e+02	4.254822953668801347e+03
6.370000000000000000e+02	4.261004135507667343e+03
6.380000000000000000e+02	4.266189850291375478e+03
6.390000000000000000e+02	4.270376443722886506e+03
6.400000000000000000e+02	4.273560963406331211e+03
6.410000000000000000e+02	4.275741162316802729e+03
6.420000000000000000e+02	4.276915501442678760e+03
6.430000000000000000e+02	4.277083151596138123e+03
6.440000000000000000e+02	4.276243994388888495e+03
6.450000000000000000e+02	4.274398622371483725e+03
6.460000000000000000e+02	4.271548338336026063e+03
6.470000000000000000e+02	4.267695153783379283e+03
6.480000000000000000e+02	4.262841786557431988e+03
6.490000000000000000e+02	4.256991657650293746e+03
6.500000000000000000e+02	4.250148887183692750e+03
6.510000000000000000e+02	4.242318289573179754e+03
6.520000000000000000e+02	4.233505367883079089e+03
6.530000000000000000e+02	4.223716307381455408e+03
6.540000000000000000e+02	4.212957968305667237e+03
6.550000000000000000e+02	4.201237877850348013e+03
6.560000000000000000e+02	4.188564221390905914e+03
6.570000000000000000e+02	4.174945832956890627e+03
6.580000000000000000e+02	4.160392184970715789e+03
6.590000000000000000e+02	4.144913377268449949e+03
6.600000000000000000e+02	4.128520125420473960e+03
6.610000000000000000e+02	4.111223748370907742e+03
6.620000000000000000e+02	4.093036155415772555e+03
6.630000000000000000e+02	4.073969832540849893e+03
6.640000000000000000e+02	4.054037828141172213e+03
6.650000000000000000e+02	4.033253738145001535e+03
6.660000000000000000e+02	4.011631690566030557e+03
6.670000000000000000e+02	3.989186329508360814e+03
6.680000000000000000e+02	3.965932798649594588e+03
6.690000000000000000e+02	3.941886724228098501e+03
6.700000000000000000e+02	3.917064197561171113e+03
6.710000000000000000e+02	3.891481757121459850e+03
6.720000000000000000e+02	3.865156370199543289e+03
6.730000000000000000e+02	3.838105414181095512e+03
6.740000000000000000e+02	3.810346657467503064e+03
6.750000000000000000e+02	3.781898240069195253e+03
6.760000000000000000e+02	3.752778653901289545e+03
6.770000000000000000e+02	3.723006722811430336e+03
6.780000000000000000e+02	3.692601582369915377e+03
6.790000000000000000e+02	3.661582659452366897e+03
6.800000000000000000e+02	3.629969651645320027e+03
6.810000000000000000e+02	3.597782506505127003e+03
6.820000000000000000e+02	3.565041400700578833e+03
6.830000000000000000e+02	3.531766719069579722e+03
6.840000000000000000e+02	3.497979033620071277e+03
6.850000000000000000e+02	3.463699082505239403e+03
6.860000000000000000e+02	3.428947749002787987e+03
6.870000000000000000e+02	3.393746040527789319e+03
6.880000000000000000e+02	3.358115067708269180e+03
6.890000000000000000e+02	3.322076023552298921e+03
6.900000000000000000e+02	3.285650162734918467e+03
6.910000000000000000e+02	3.248858781032738079e+03
6.920000000000000000e+02	3.211723194933504601e+03
6.930000000000000000e+02	3.174264721447365901e+03
6.940000000000000000e+02	3.136504658145911435e+03
6.950000000000000000e+02	3.098464263454419324e+03
6.960000000000000000e+02	3.060164737222020904e+03
6.970000000000000000e+02	3.021627201593753853e+03
6.980000000000000000e+02	2.982872682207689195e+03
6.990000000000000000e+02	2.943922089739499370e+03
7.000000000000000000e+02	2.904796201815994209e+03
7.010000000000000000e+02	2.865515645318265797e+03
7.020000000000000000e+02	2.826100879094188713e+03
7.030000000000000000e+02	2.786572177099068995e+03
7.040000000000000000e+02	2.746949611982322949e+03
7.050000000000000000e+02	2.707253039137051928e+03
7.060000000000000000e+02	2.667502081228407860e+03
7.070000000000000000e+02	2.627716113215642508e+03
7.080000000000000000e+02	2.587914247881698429e+03
7.090000000000000000e+02	2.548115321883172783e+03
7.100000000000000000e+02	2.508337882332452409e+03
7.110000000000000000e+02	2.468600173922756312e+03
7.120000000000000000e+02	2.428920126605785299e+03
7.130000000000000000e+02	2.389315343830610345e+03
7.140000000000000000e+02	2.349803091351395778e+03
7.150000000000000000e+02	2.310400286610482908e+03
7.160000000000000000e+02	2.271123488702330178e+03
7.170000000000000000e+02	2.231988888922754086e+03
7.180000000000000000e+02	2.193012301906901030e+03
7.190000000000000000e+02	2.154209157358335233e+03
7.200000000000000000e+02	2.115594492370653370e+03
7.210000000000000000e+02	2.077182944342016981e+03
7.220000000000000000e+02	2.038988744482031962e+03
7.230000000000000000e+02	2.001025711909447864e+03
7.240000000000000000e+02	1.963307248338208183e+03
7.250000000000000000e+02	1.925846333348470125e+03
7.260000000000000000e+02	1.888655520238315148e+03
7.270000000000000000e+02	1.851746932451018210e+03
7.280000000000000000e+02	1.815132260571879897e+03
7.290000000000000000e+02	1.778822759887834081e+03
7.300000000000000000e+02	1.742829248502238215e+03
7.310000000000000000e+02	1.707162105996513446e+03
7.320000000000000000e+02	1.671831272629559408e+03
7.330000000000000000e+02	1.636846249065192069e+03
7.340000000000000000e+02	1.602216096617171615e+03
7.350000000000000000e+02	1.567949438000772034e+03
7.360000000000000000e+02	1.534054458579246102e+03
7.370000000000000000e+02	1.500538908092966494e+03
7.380000000000000000e+02	1.467410102858515984e+03
7.390000000000000000e+02	1.434674928424489281e+03
7.400000000000000000e+02	1.402339842670324060e+03
7.410000000000000000e+02	1.370410879334053334e+03
7.420000000000000000e+02	1.338893651954484085e+03
7.430000000000000000e+02	1.307793358212961948e+03
7.440000000000000000e+02	1.277114784659561110e+03
7.450000000000000000e+02	1.246862311808263939e+03
7.460000000000000000e+02	1.217039919585448160e+03
7.470000000000000000e+02	1.187651193115792694e+03
7.480000000000000000e+02	1.158699328829534352e+03
7.490000000000000000e+02	1.130187140874872966e+03
7.500000000000000000e+02	1.102117067819208387e+03
7.510000000000000000e+02	1.074491179622822756e+03
7.520000000000000000e+02	1.047311184868582586e+03
7.530000000000000000e+02	1.020578438231213340e+03
7.540000000000000000e+02	9.942939481697333122e+02
7.550000000000000000e+02	9.684583848266753421e+02
7.560000000000000000e+02	9.430720881178081072e+02
7.570000000000000000e+02	9.181350759961715085e+02
7.580000000000000000e+02	8.936470528743850537e+02
7.590000000000000000e+02	8.696074181893408195e+02
7.600000000000000000e+02	8.460152750935828863e+02
7.610000000000000000e+02	8.228694392578855741e+02
7.620000000000000000e+02	8.001684477697782540e+02
7.630000000000000000e+02	7.779105681130183712e+02
7.640000000000000000e+02	7.560938072132918251e+02
7.650000000000000000e+02	7.347159205357182827e+02
7.660000000000000000e+02	7.137744212200532274e+02
7.670000000000000000e+02	6.932665892398092637e+02
7.680000000000000000e+02	6.731894805718721955e+02
7.690000000000000000e+02	6.535399363635500549e+02
7.700000000000000000e+02	6.343145920843675185e+02
7.710000000000000000e+02	6.155098866503145700e+02
7.720000000000000000e+02	5.971220715086584505e+02
7.730000000000000000e+02	5.791472196718341365e+02
7.740000000000000000e+02	5.615812346893637823e+02
7.750000000000000000e+02	5.444198595471689259e+02
7.760000000000000000e+02	5.276586854840908245e+02
7.770000000000000000e+02	5.112931607158628253e+02
7.780000000000000000e+02	4.953185990572392257e+02
7.790000000000000000e+02	4.797301884334219721e+02
7.800000000000000000e+02	4.645229992723911892e+02
7.810000000000000000e+02	4.496919927701921438e+02
7.820000000000000000e+02	4.352320290216919716e+02
7.830000000000000000e+02	4.211378750097683223e+02
7.840000000000000000e+02	4.074042124463509253e+02
7.850000000000000000e+02	3.940256454591848296e+02
7.860000000000000000e+02	3.809967081186319433e+02
7.870000000000000000e+02	3.683118717992744564e+02
7.880000000000000000e+02	3.559655523715171057e+02
7.890000000000000000e+02	3.439521172188251512e+02
7.900000000000000000e+02	3.322658920766569395e+02
7.910000000000000000e+02	3.209011676895756295e+02
7.920000000000000000e+02	3.098522062834305757e+02
7.930000000000000000e+02	2.991132478499107492e+02
7.940000000000000000e+02	2.886785162411632086e+02
7.950000000000000000e+02	2.785422250725583808e+02
7.960000000000000000e+02	2.686985834320616959e+02
7.970000000000000000e+02	2.591418013950342356e+02
7.980000000000000000e+02	2.498660953436457532e+02
7.990000000000000000e+02	2.408656930904242017e+02
8.000000000000000000e+02	2.321348388058025876e+02
8.010000000000000000e+02	2.236677977498446239e+02
8.020000000000000000e+02	2.154588608086409920e+02
8.030000000000000000e+02	2.075023488361672719e+02
8.040000000000000000e+02	1.997926168026784808e+02
8.050000000000000000e+02	1.923240577509909315e+02
8.060000000000000000e+02	1.850911065622611318e+02
8.070000000000000000e+02	1.780882435331214140e+02
8.080000000000000000e+02	1.713099977662662923e+02
8.090000000000000000e+02	1.647509503768068271e+02
8.100000000000000000e+02	1.584057375169226702e+02
8.110000000000000000e+02	1.522690532215347332e+02
8.120000000000000000e+02	1.463356520779116750e+02
8.130000000000000000e+02	1.406003517222923449e+02
8.140000000000000000e+02	1.350580351667683487e+02
8.150000000000000000e+02	1.297036529598191237e+02
8.160000000000000000e+02	1.245322251840266006e+02
8.170000000000000000e+02	1.195388432946231916e+02
8.180000000000000000e+02	1.147186718026368624e+02
8.190000000000000000e+02	1.100669498065002045e+02
8.200000000000000000e+02	1.055789923760797677e+02
8.210000000000000000e+02	1.012501917931604822e+02
8.220000000000000000e+02	9.707601865249016271e+01
8.230000000000000000e+02	9.305202282754474652e+01
8.240000000000000000e+02	8.917383430522626497e+01
8.250000000000000000e+02	8.543716389374026221e+01
8.260000000000000000e+02	8.183780380793179177e+01
8.270000000000000000e+02	7.837162813637645797e+01
8.280000000000000000e+02	7.503459319453548915e+01
8.290000000000000000e+02	7.182273776828614587e+01
8.300000000000000000e+02	6.873218325213331070e+01
8.310000000000000000e+02	6.575913368639517387e+01
8.320000000000000000e+02	6.289987569763564323e+01
8.330000000000000000e+02	6.015077834658877265e+01
8.340000000000000000e+02	5.750829288778594872e+01
8.350000000000000000e+02	5.496895244505672906e+01
8.360000000000000000e+02	5.252937160702811070e+01
8.370000000000000000e+02	5.018624594669481809e+01
8.380000000000000000e+02	4.793635146907622158e+01
8.390000000000000000e+02	4.577654399091356652e+01
8.400000000000000000e+02	4.370375845629508404e+01
8.410000000000000000e+02	4.171500819202572075e+01
8.420000000000000000e+02	3.980738410648330472e+01
8.430000000000000000e+02	3.797805383562553061e+01
8.440000000000000000e+02	3.622426083973086719e+01
8.450000000000000000e+02	3.454332345437195784e+01
8.460000000000000000e+02	3.293263389903381722e+01
8.470000000000000000e+02	3.138965724669959201e+01
8.480000000000000000e+02	2.991193035763646435e+01
8.490000000000000000e+02	2.849706078052058800e+01
8.500000000000000000e+02	2.714272562394649668e+01
8.510000000000000000e+02	2.584667040127083837e+01
8.520000000000000000e+02	2.460670785164380447e+01
8.530000000000000000e+02	2.342071673998481884e+01
8.540000000000000000e+02	2.228664063856168909e+01
8.550000000000000000e+02	2.120248669273463804e+01
8.560000000000000000e+02	2.016632437332880556e+01
8.570000000000000000e+02	1.917628421800152694e+01
8.580000000000000000e+02	1.823055656387351320e+01
8.590000000000000000e+02	1.732739027359628281e+01
8.600000000000000000e+02	1.646509145693259413e+01
8.610000000000000000e+02	1.564202218983153969e+01
8.620000000000000000e+02	1.485659923288605988e+01
8.630000000000000000e+02	1.410729275096780988e+01
8.640000000000000000e+02	1.339262503574320640e+01
8.650000000000000000e+02	1.271116923268412258e+01
8.660000000000000000e+02	1.206154807409855678e+01
8.670000000000000000e+02	1.144243261961979918e+01
8.680000000000000000e+02	1.085254100550753087e+01
8.690000000000000000e+02	1.029063720403118332e+01
8.700000000000000000e+02	9.755529794124761622e+00
8.710000000000000000e+02	9.246070744422866028e+00
8.720000000000000000e+02	8.761154209710634078e+00
8.730000000000000000e+02	8.299715341745233843e+00
8.740000000000000000e+02	7.860729115333288775e+00
8.750000000000000000e+02	7.443209170478414904e+00
8.760000000000000000e+02	7.046206671343924199e+00
8.770000000000000000e+02	6.668809182709819261e+00
8.780000000000000000e+02	6.310139564539087864e+00
8.790000000000000000e+02	5.969354885206440642e+00
8.800000000000000000e+02	5.645645353883303130e+00
8.810000000000000000e+02	5.338233272515576111e+00
8.820000000000000000e+02	5.046372007775780766e+00
8.830000000000000000e+02	4.769344983318522857e+00
8.840000000000000000e+02	4.506464692617899281e+00
8.850000000000000000e+02	4.257071732617151660e+00
8.860000000000000000e+02	4.020533858375066494e+00
8.870000000000000000e+02	3.796245058849708087e+00
8.880000000000000000e+02	3.583624653918558334e+00
8.890000000000000000e+02	3.382116412694623264e+00
8.900000000000000000e+02	3.191187693160537631e+00
8.910000000000000000e+02	3.010328603107541579e+00
8.920000000000000000e+02	2.839051182332650747e+00
8.930000000000000000e+02	2.676888606016034178e+00
8.940000000000000000e+02	2.523394409171137109e+00
8.950000000000000000e+02	2.378141732032406974e+00
8.960000000000000000e+02	2.240722586219753065e+00
8.970000000000000000e+02	2.110747141494775825e+00
8.980000000000000000e+02	1.987843032901526641e+00
8.990000000000000000e+02	1.871654688063905336e+00
9.000000000000000000e+02	1.761842674392710251e+00
9.010000000000000000e+02	1.658083065937943523e+00
9.020000000000000000e+02	1.560066829605935679e+00
9.030000000000000000e+02	1.467499230446317027e+00
9.040000000000000000e+02	1.380099255700751870e+00
9.050000000000000000e+02	1.297599057293496783e+00
9.060000000000000000e+02	1.219743412433335061e+00
9.070000000000000000e+02	1.146289201987162443e+00
9.080000000000000000e+02	1.077004906277328811e+00
9.090000000000000000e+02	1.011670117947854219e+00
9.100000000000000000e+02	9.500750715387399348e-01
9.110000000000000000e+02	8.920201894025832079e-01
9.120000000000000000e+02	8.373156435938592379e-01
9.130000000000000000e+02	7.857809333580919597e-01
9.140000000000000000e+02	7.372444778460467418e-01
9.150000000000000000e+02	6.915432236766306806e-01
9.160000000000000000e+02	6.485222669716881327e-01
9.170000000000000000e+02	6.080344894859326388e-01
9.180000000000000000e+02	5.699402084561383530e-01
9.190000000000000000e+02	5.341068397950953228e-01
9.200000000000000000e+02	5.004085742579423846e-01
9.210000000000000000e+02	4.687260662110241394e-01
9.220000000000000000e+02	4.389461346365738370e-01
9.230000000000000000e+02	4.109614760100528397e-01
9.240000000000000000e+02	3.846703886910395331e-01
9.250000000000000000e+02	3.599765084729353304e-01
9.260000000000000000e+02	3.367885549415681190e-01
9.270000000000000000e+02	3.150200882978532180e-01
9.280000000000000000e+02	2.945892763051241037e-01
9.290000000000000000e+02	2.754186710273945349e-01
9.300000000000000000e+02	2.574349950307718848e-01
9.310000000000000000e+02	2.405689367263525447e-01
9.320000000000000000e+02	2.247549545392872605e-01
9.330000000000000000e+02	2.099310895951710665e-01
9.340000000000000000e+02	1.960387866215612396e-01
9.350000000000000000e+02	1.830227227691524072e-01
9.360000000000000000e+02	1.708306440639975332e-01
9.370000000000000000e+02	1.594132092090596586e-01
9.380000000000000000e+02	1.487238404603631881e-01
9.390000000000000000e+02	1.387185813100044185e-01
9.400000000000000000e+02	1.293559607153233204e-01
9.410000000000000000e+02	1.205968636205569378e-01
9.420000000000000000e+02	1.124044075243256363e-01
9.430000000000000000e+02	1.047438248532922556e-01
9.440000000000000000e+02	9.758235090930464373e-02
9.450000000000000000e+02	9.088911716423632436e-02
9.460000000000000000e+02	8.463504968360206770e-02
9.470000000000000000e+02	7.879277246680110869e-02
9.480000000000000000e+02	7.333651549855667306e-02
9.490000000000000000e+02	6.824202731273246170e-02
9.500000000000000000e+02	6.348649187623907342e-02
9.510000000000000000e+02	5.904844960716174734e-02
9.520000000000000000e+02	5.490772234756515630e-02
9.530000000000000000e+02	5.104534211763053775e-02
9.540000000000000000e+02	4.744348348387059794e-02
9.550000000000000000e+02	4.408539938013363718e-02
9.560000000000000000e+02	4.095536022594691017e-02
9.570000000000000000e+02	3.803859619246286600e-02
9.580000000000000000e+02	3.532124247185144256e-02
9.590000000000000000e+02	3.279028741143015513e-02
9.600000000000000000e+02	3.043352337913498434e-02
9.610000000000000000e+02	2.823950023211237170e-02
9.620000000000000000e+02	2.619748126525119417e-02
9.630000000000000000e+02	2.429740152137617459e-02
9.640000000000000000e+02	2.252982834958721509e-02
9.650000000000000000e+02	2.088592410285650472e-02
9.660000000000000000e+02	1.935741087048425610e-02
9.670000000000000000e+02	1.793653714536817476e-02
9.680000000000000000e+02	1.661604633025836122e-02
9.690000000000000000e+02	1.538914699125504444e-02
9.700000000000000000e+02	1.424948477075746109e-02
9.710000000000000000e+02	1.319111587589229424e-02
9.720000000000000000e+02	1.220848206214326416e-02
9.730000000000000000e+02	1.129638703546660509e-02
9.740000000000000000e+02	1.044997419961805722e-02
9.750000000000000000e+02	9.664705678732990815e-03
9.760000000000000000e+02	8.936342548398978902e-03
9.770000000000000000e+02	8.260926211538314676e-03
9.780000000000000000e+02	7.634760858381707711e-03
9.790000000000000000e+02	7.054396952665485665e-03
9.800000000000000000e+02	6.516615688925068810e-03
9.810000000000000000e+02	6.018414368391289404e-03
9.820000000000000000e+02	5.556992643524913227e-03
9.830000000000000000e+02	5.129739583652159068e-03
9.840000000000000000e+02	4.734221516491870368e-03
9.850000000000000000e+02	4.368170602597453052e-03
9.860000000000000000e+02	4.029474101875324919e-03
9.870000000000000000e+02	3.716164293389616520e-03
9.880000000000000000e+02	3.426409011623813942e-03
9.890000000000000000e+02	3.158502764245157274e-03
9.900000000000000000e+02	2.910858398211361563e-03
9.910000000000000000e+02	2.681999282772806921e-03
9.920000000000000000e+02	2.470551979560868267e-03
9.930000000000000000e+02	2.275239371515882375e-03
9.940000000000000000e+02	2.094874223899984532e-03
9.950000000000000000e+02	1.928353152062791233e-03
9.960000000000000000e+02	1.774650971984189328e-03
9.970000000000000000e+02	1.632815410911043390e-03
9.980000000000000000e+02	1.501962156635624959e-03
9.990000000000000000e+02	1.381270225135519799e-03
1.000000000000000000e+03	1.269977627409987937e-03
