nm, A
800.000000, 0.034846
799.000000, 0.034262
798.000000, 0.034048
797.000000, 0.033991
796.000000, 0.033925
795.000000, 0.033597
794.000000, 0.035093
793.000000, 0.034796
792.000000, 0.034431
791.000000, 0.034776
790.000000, 0.033327
789.000000, 0.035416
788.000000, 0.033756
787.000000, 0.034100
786.000000, 0.033967
785.000000, 0.035024
784.000000, 0.034238
783.000000, 0.034130
782.000000, 0.033600
781.000000, 0.034893
780.000000, 0.033979
779.000000, 0.034295
778.000000, 0.035203
777.000000, 0.035960
776.000000, 0.034750
775.000000, 0.034660
774.000000, 0.034930
773.000000, 0.036203
772.000000, 0.036094
771.000000, 0.034911
770.000000, 0.035961
769.000000, 0.036350
768.000000, 0.036904
767.000000, 0.037121
766.000000, 0.038011
765.000000, 0.038038
764.000000, 0.038539
763.000000, 0.039340
762.000000, 0.039992
761.000000, 0.039368
760.000000, 0.038965
759.000000, 0.039875
758.000000, 0.039572
757.000000, 0.040058
756.000000, 0.040156
755.000000, 0.039608
754.000000, 0.039679
753.000000, 0.040093
752.000000, 0.040688
751.000000, 0.041073
750.000000, 0.040824
749.000000, 0.040895
748.000000, 0.041910
747.000000, 0.041526
746.000000, 0.042271
745.000000, 0.041702
744.000000, 0.041758
743.000000, 0.040420
742.000000, 0.040326
741.000000, 0.040363
740.000000, 0.040293
739.000000, 0.039894
738.000000, 0.039377
737.000000, 0.039269
736.000000, 0.038790
735.000000, 0.038252
734.000000, 0.038375
733.000000, 0.038521
732.000000, 0.038312
731.000000, 0.038608
730.000000, 0.038362
729.000000, 0.037579
728.000000, 0.038512
727.000000, 0.038603
726.000000, 0.038517
725.000000, 0.039232
724.000000, 0.038801
723.000000, 0.038215
722.000000, 0.037939
721.000000, 0.038081
720.000000, 0.039144
719.000000, 0.039466
718.000000, 0.038649
717.000000, 0.038446
716.000000, 0.038692
715.000000, 0.039189
714.000000, 0.039058
713.000000, 0.039243
712.000000, 0.039657
711.000000, 0.039564
710.000000, 0.039357
709.000000, 0.038972
708.000000, 0.038916
707.000000, 0.038898
706.000000, 0.038506
705.000000, 0.038235
704.000000, 0.039275
703.000000, 0.039596
702.000000, 0.039390
701.000000, 0.039054
700.000000, 0.039349
699.000000, 0.039674
698.000000, 0.039258
697.000000, 0.039519
696.000000, 0.039237
695.000000, 0.039284
694.000000, 0.039452
693.000000, 0.039066
692.000000, 0.039149
691.000000, 0.039405
690.000000, 0.039740
689.000000, 0.040146
688.000000, 0.039764
687.000000, 0.039213
686.000000, 0.039008
685.000000, 0.038926
684.000000, 0.039255
683.000000, 0.039791
682.000000, 0.039573
681.000000, 0.038590
680.000000, 0.038917
679.000000, 0.039504
678.000000, 0.038795
677.000000, 0.038890
676.000000, 0.039182
675.000000, 0.039301
674.000000, 0.039492
673.000000, 0.038841
672.000000, 0.037866
671.000000, 0.038685
670.000000, 0.039639
669.000000, 0.039082
668.000000, 0.039062
667.000000, 0.038670
666.000000, 0.038365
665.000000, 0.038145
664.000000, 0.038685
663.000000, 0.038740
662.000000, 0.038653
661.000000, 0.039326
660.000000, 0.038822
659.000000, 0.038014
658.000000, 0.037593
657.000000, 0.037792
656.000000, 0.038339
655.000000, 0.038347
654.000000, 0.037842
653.000000, 0.037560
652.000000, 0.037990
651.000000, 0.038196
650.000000, 0.038680
649.000000, 0.038051
648.000000, 0.037417
647.000000, 0.037958
646.000000, 0.038115
645.000000, 0.038001
644.000000, 0.038660
643.000000, 0.038215
642.000000, 0.037909
641.000000, 0.037742
640.000000, 0.037639
639.000000, 0.037692
638.000000, 0.037171
637.000000, 0.037092
636.000000, 0.036591
635.000000, 0.036636
634.000000, 0.037443
633.000000, 0.037469
632.000000, 0.037116
631.000000, 0.036601
630.000000, 0.035655
629.000000, 0.036323
628.000000, 0.036702
627.000000, 0.036694
626.000000, 0.036042
625.000000, 0.035204
624.000000, 0.035435
623.000000, 0.035507
622.000000, 0.035489
621.000000, 0.035212
620.000000, 0.035260
619.000000, 0.035592
618.000000, 0.035342
617.000000, 0.034985
616.000000, 0.034204
615.000000, 0.033430
614.000000, 0.033861
613.000000, 0.034627
612.000000, 0.035023
611.000000, 0.034502
610.000000, 0.033633
609.000000, 0.033960
608.000000, 0.032890
607.000000, 0.032789
606.000000, 0.033719
605.000000, 0.033430
604.000000, 0.033830
603.000000, 0.033274
602.000000, 0.032598
601.000000, 0.033327
600.000000, 0.032977
599.000000, 0.032703
598.000000, 0.033117
597.000000, 0.032788
596.000000, 0.032850
595.000000, 0.032401
594.000000, 0.032573
593.000000, 0.032605
592.000000, 0.032549
591.000000, 0.032290
590.000000, 0.031637
589.000000, 0.031944
588.000000, 0.032055
587.000000, 0.032054
586.000000, 0.031958
585.000000, 0.032341
584.000000, 0.031450
583.000000, 0.031980
582.000000, 0.032309
581.000000, 0.031688
580.000000, 0.031419
579.000000, 0.032123
578.000000, 0.031830
577.000000, 0.031542
576.000000, 0.031355
575.000000, 0.031382
574.000000, 0.031108
573.000000, 0.030811
572.000000, 0.031349
571.000000, 0.031113
570.000000, 0.031392
569.000000, 0.030902
568.000000, 0.030600
567.000000, 0.030986
566.000000, 0.031436
565.000000, 0.030544
564.000000, 0.030685
563.000000, 0.029731
562.000000, 0.030259
561.000000, 0.031013
560.000000, 0.030103
559.000000, 0.029764
558.000000, 0.030340
557.000000, 0.029624
556.000000, 0.029965
555.000000, 0.029108
554.000000, 0.029101
553.000000, 0.029380
552.000000, 0.030061
551.000000, 0.029220
550.000000, 0.029863
549.000000, 0.029620
548.000000, 0.029243
547.000000, 0.028587
546.000000, 0.029476
545.000000, 0.029580
544.000000, 0.029545
543.000000, 0.030059
542.000000, 0.029853
541.000000, 0.029890
540.000000, 0.030174
539.000000, 0.029182
538.000000, 0.028803
537.000000, 0.029727
536.000000, 0.029860
535.000000, 0.029660
534.000000, 0.030108
533.000000, 0.029833
532.000000, 0.030940
531.000000, 0.029980
530.000000, 0.030394
529.000000, 0.030873
528.000000, 0.031210
527.000000, 0.031726
526.000000, 0.031705
525.000000, 0.031759
524.000000, 0.031869
523.000000, 0.031972
522.000000, 0.032839
521.000000, 0.032146
520.000000, 0.032608
519.000000, 0.032990
518.000000, 0.033052
517.000000, 0.032936
516.000000, 0.033449
515.000000, 0.032907
514.000000, 0.033978
513.000000, 0.033744
512.000000, 0.033485
511.000000, 0.033336
510.000000, 0.033740
509.000000, 0.033222
508.000000, 0.034565
507.000000, 0.033756
506.000000, 0.034252
505.000000, 0.034289
504.000000, 0.033703
503.000000, 0.033210
502.000000, 0.033355
501.000000, 0.032873
500.000000, 0.033598
499.000000, 0.032947
498.000000, 0.032976
497.000000, 0.032285
496.000000, 0.032433
495.000000, 0.032446
494.000000, 0.032813
493.000000, 0.032085
492.000000, 0.031850
491.000000, 0.031297
490.000000, 0.030886
489.000000, 0.030002
488.000000, 0.030711
487.000000, 0.030914
486.000000, 0.030404
485.000000, 0.029806
484.000000, 0.029855
483.000000, 0.029615
482.000000, 0.029413
481.000000, 0.030123
480.000000, 0.030969
479.000000, 0.031205
478.000000, 0.030917
477.000000, 0.031570
476.000000, 0.031453
475.000000, 0.032179
474.000000, 0.032835
473.000000, 0.032634
472.000000, 0.032917
471.000000, 0.033417
470.000000, 0.033955
469.000000, 0.033820
468.000000, 0.033999
467.000000, 0.034818
466.000000, 0.035245
465.000000, 0.035026
464.000000, 0.035782
463.000000, 0.035199
462.000000, 0.034259
461.000000, 0.034652
460.000000, 0.035003
459.000000, 0.035195
458.000000, 0.035733
457.000000, 0.035323
456.000000, 0.035181
455.000000, 0.034724
454.000000, 0.034395
453.000000, 0.034901
452.000000, 0.034676
451.000000, 0.034711
450.000000, 0.034411
449.000000, 0.034802
448.000000, 0.035256
447.000000, 0.034723
446.000000, 0.034758
445.000000, 0.034147
444.000000, 0.033725
443.000000, 0.034703
442.000000, 0.035278
441.000000, 0.035125
440.000000, 0.034584
439.000000, 0.034236
438.000000, 0.034686
437.000000, 0.035453
436.000000, 0.035092
435.000000, 0.035239
434.000000, 0.035780
433.000000, 0.036133
432.000000, 0.035834
431.000000, 0.035629
430.000000, 0.035593
429.000000, 0.035066
428.000000, 0.034916
427.000000, 0.035469
426.000000, 0.036133
425.000000, 0.036050
424.000000, 0.036323
423.000000, 0.036431
422.000000, 0.036067
421.000000, 0.036315
420.000000, 0.036701
419.000000, 0.036234
418.000000, 0.036740
417.000000, 0.037040
416.000000, 0.037518
415.000000, 0.038207
414.000000, 0.038134
413.000000, 0.037235
412.000000, 0.036773
411.000000, 0.036934
410.000000, 0.037833
409.000000, 0.038085
408.000000, 0.037902
407.000000, 0.038203
406.000000, 0.037788
405.000000, 0.037198
404.000000, 0.037751
403.000000, 0.038734
402.000000, 0.039033
401.000000, 0.038775
400.000000, 0.039057
399.000000, 0.039613
398.000000, 0.039942
397.000000, 0.039168
396.000000, 0.039237
395.000000, 0.039711
394.000000, 0.039357
393.000000, 0.039968
392.000000, 0.039715
391.000000, 0.039288
390.000000, 0.039618
389.000000, 0.040309
388.000000, 0.040593
387.000000, 0.040391
386.000000, 0.040269
385.000000, 0.040455
384.000000, 0.040565
383.000000, 0.039965
382.000000, 0.040386
381.000000, 0.039750
380.000000, 0.040330
379.000000, 0.040925
378.000000, 0.039455
377.000000, 0.037567
376.000000, 0.038003
375.000000, 0.038309
374.000000, 0.038890
373.000000, 0.038947
372.000000, 0.038850
371.000000, 0.039304
370.000000, 0.039834
369.000000, 0.039590
368.000000, 0.039948
367.000000, 0.039393
366.000000, 0.039765
365.000000, 0.039300
364.000000, 0.040605
363.000000, 0.040703
362.000000, 0.040739
361.000000, 0.040099
360.000000, 0.041075
359.000000, 0.041318
358.000000, 0.040958
357.000000, 0.040622
356.000000, 0.041167
355.000000, 0.040952
354.000000, 0.041789
353.000000, 0.041640
352.000000, 0.041787
351.000000, 0.041895
350.000000, 0.042667
349.000000, 0.042506
348.000000, 0.042225
347.000000, 0.041425
346.000000, 0.042400
345.000000, 0.042505
344.000000, 0.041817
343.000000, 0.042280
342.000000, 0.042004
341.000000, 0.042520
340.000000, 0.042389
339.000000, 0.041524
338.000000, 0.042012
337.000000, 0.042847
336.000000, 0.042508
335.000000, 0.042273
334.000000, 0.042613
333.000000, 0.042529
332.000000, 0.041974
331.000000, 0.042723
330.000000, 0.042028
329.000000, 0.043122
328.000000, 0.042834
327.000000, 0.042892
326.000000, 0.042016
325.000000, 0.042851
324.000000, 0.042834
323.000000, 0.043667
322.000000, 0.043883
321.000000, 0.043424
320.000000, 0.043210
319.000000, 0.043263
318.000000, 0.055253
317.000000, 0.055845
316.000000, 0.056146
315.000000, 0.056261
314.000000, 0.056662
313.000000, 0.056549
312.000000, 0.056366
311.000000, 0.056022
310.000000, 0.057257
309.000000, 0.057921
308.000000, 0.058049
307.000000, 0.057950
306.000000, 0.058314
305.000000, 0.058628
304.000000, 0.058050
303.000000, 0.058036
302.000000, 0.059042
301.000000, 0.058652
300.000000, 0.058016
