nm, A
800.000000, 0.001453
799.000000, 0.002692
798.000000, 0.002948
797.000000, 0.002625
796.000000, 0.002658
795.000000, 0.003541
794.000000, 0.002364
793.000000, 0.000866
792.000000, 0.002373
791.000000, 0.001863
790.000000, 0.003554
789.000000, 0.000714
788.000000, 0.002527
787.000000, 0.003133
786.000000, 0.002908
785.000000, 0.001847
784.000000, 0.003146
783.000000, 0.003412
782.000000, 0.003465
781.000000, 0.002293
780.000000, 0.004010
779.000000, 0.003459
778.000000, 0.002067
777.000000, 0.002224
776.000000, 0.002746
775.000000, 0.003031
774.000000, 0.002904
773.000000, 0.002396
772.000000, 0.003035
771.000000, 0.004207
770.000000, 0.002814
769.000000, 0.003046
768.000000, 0.002705
767.000000, 0.002819
766.000000, 0.002659
765.000000, 0.003148
764.000000, 0.002127
763.000000, 0.002032
762.000000, 0.002096
761.000000, 0.003402
760.000000, 0.003520
759.000000, 0.002140
758.000000, 0.001951
757.000000, 0.003034
756.000000, 0.002919
755.000000, 0.002740
754.000000, 0.002246
753.000000, 0.002212
752.000000, 0.002347
751.000000, 0.002527
750.000000, 0.003158
749.000000, 0.003467
748.000000, 0.002451
747.000000, 0.003146
746.000000, 0.003107
745.000000, 0.001928
744.000000, 0.002136
743.000000, 0.002854
742.000000, 0.003662
741.000000, 0.002842
740.000000, 0.002028
739.000000, 0.002191
738.000000, 0.002532
737.000000, 0.002936
736.000000, 0.002999
735.000000, 0.002566
734.000000, 0.002789
733.000000, 0.002782
732.000000, 0.003502
731.000000, 0.002642
730.000000, 0.001744
729.000000, 0.002339
728.000000, 0.002176
727.000000, 0.002307
726.000000, 0.002613
725.000000, 0.002651
724.000000, 0.002346
723.000000, 0.003661
722.000000, 0.004148
721.000000, 0.003277
720.000000, 0.002339
719.000000, 0.002226
718.000000, 0.002895
717.000000, 0.002762
716.000000, 0.002669
715.000000, 0.002395
714.000000, 0.002476
713.000000, 0.002622
712.000000, 0.001965
711.000000, 0.001557
710.000000, 0.001579
709.000000, 0.001720
708.000000, 0.002839
707.000000, 0.002853
706.000000, 0.002742
705.000000, 0.003138
704.000000, 0.001817
703.000000, 0.000978
702.000000, 0.001972
701.000000, 0.002892
700.000000, 0.002259
699.000000, 0.002017
698.000000, 0.002527
697.000000, 0.002398
696.000000, 0.002331
695.000000, 0.002008
694.000000, 0.002104
693.000000, 0.002289
692.000000, 0.002449
691.000000, 0.002775
690.000000, 0.002138
689.000000, 0.001506
688.000000, 0.002218
687.000000, 0.003135
686.000000, 0.002905
685.000000, 0.002880
684.000000, 0.002630
683.000000, 0.001975
682.000000, 0.002130
681.000000, 0.003350
680.000000, 0.002588
679.000000, 0.002375
678.000000, 0.003180
677.000000, 0.002530
676.000000, 0.002470
675.000000, 0.002557
674.000000, 0.001877
673.000000, 0.002329
672.000000, 0.003760
671.000000, 0.003221
670.000000, 0.002337
669.000000, 0.002370
668.000000, 0.002468
667.000000, 0.002858
666.000000, 0.002902
665.000000, 0.002705
664.000000, 0.002504
663.000000, 0.003008
662.000000, 0.003461
661.000000, 0.002495
660.000000, 0.002887
659.000000, 0.003441
658.000000, 0.003957
657.000000, 0.003586
656.000000, 0.002908
655.000000, 0.002877
654.000000, 0.002600
653.000000, 0.002659
652.000000, 0.002602
651.000000, 0.003331
650.000000, 0.002438
649.000000, 0.002520
648.000000, 0.003199
647.000000, 0.002530
646.000000, 0.002535
645.000000, 0.002253
644.000000, 0.001997
643.000000, 0.002549
642.000000, 0.002586
641.000000, 0.002274
640.000000, 0.002556
639.000000, 0.002192
638.000000, 0.003057
637.000000, 0.002972
636.000000, 0.003839
635.000000, 0.003296
634.000000, 0.002290
633.000000, 0.001508
632.000000, 0.001881
631.000000, 0.002264
630.000000, 0.003513
629.000000, 0.002873
628.000000, 0.002378
627.000000, 0.002056
626.000000, 0.002713
625.000000, 0.003443
624.000000, 0.002854
623.000000, 0.002942
622.000000, 0.002997
621.000000, 0.003414
620.000000, 0.003069
619.000000, 0.002856
618.000000, 0.002088
617.000000, 0.002580
616.000000, 0.003773
615.000000, 0.004253
614.000000, 0.003392
613.000000, 0.002165
612.000000, 0.001833
611.000000, 0.002952
610.000000, 0.003258
609.000000, 0.002895
608.000000, 0.004030
607.000000, 0.004332
606.000000, 0.003437
605.000000, 0.002702
604.000000, 0.001722
603.000000, 0.002880
602.000000, 0.004234
601.000000, 0.002289
600.000000, 0.003298
599.000000, 0.003341
598.000000, 0.002262
597.000000, 0.002728
596.000000, 0.002588
595.000000, 0.003131
594.000000, 0.002513
593.000000, 0.002713
592.000000, 0.002834
591.000000, 0.004118
590.000000, 0.003848
589.000000, 0.002926
588.000000, 0.002432
587.000000, 0.002893
586.000000, 0.002828
585.000000, 0.003142
584.000000, 0.004221
583.000000, 0.003752
582.000000, 0.002709
581.000000, 0.003569
580.000000, 0.004227
579.000000, 0.002055
578.000000, 0.002881
577.000000, 0.003607
576.000000, 0.003172
575.000000, 0.003508
574.000000, 0.003606
573.000000, 0.004748
572.000000, 0.003439
571.000000, 0.003265
570.000000, 0.003056
569.000000, 0.003123
568.000000, 0.003978
567.000000, 0.003523
566.000000, 0.003788
565.000000, 0.004601
564.000000, 0.003573
563.000000, 0.004214
562.000000, 0.004350
561.000000, 0.002490
560.000000, 0.004171
559.000000, 0.005116
558.000000, 0.003026
557.000000, 0.004034
556.000000, 0.003572
555.000000, 0.004277
554.000000, 0.004792
553.000000, 0.004154
552.000000, 0.003808
551.000000, 0.004924
550.000000, 0.003949
549.000000, 0.003957
548.000000, 0.005086
547.000000, 0.006227
546.000000, 0.004527
545.000000, 0.004049
544.000000, 0.003927
543.000000, 0.004727
542.000000, 0.003163
541.000000, 0.003949
540.000000, 0.003670
539.000000, 0.005282
538.000000, 0.005456
537.000000, 0.005082
536.000000, 0.004731
535.000000, 0.005528
534.000000, 0.004771
533.000000, 0.005144
532.000000, 0.003856
531.000000, 0.005396
530.000000, 0.005241
529.000000, 0.005236
528.000000, 0.005421
527.000000, 0.004636
526.000000, 0.004851
525.000000, 0.004977
524.000000, 0.005459
523.000000, 0.005914
522.000000, 0.005970
521.000000, 0.007223
520.000000, 0.009256
519.000000, 0.011426
518.000000, 0.015527
517.000000, 0.021148
516.000000, 0.027850
515.000000, 0.036368
514.000000, 0.042277
513.000000, 0.045168
512.000000, 0.044705
511.000000, 0.042424
510.000000, 0.039098
509.000000, 0.037164
508.000000, 0.033237
507.000000, 0.032120
506.000000, 0.027895
505.000000, 0.026579
504.000000, 0.025047
503.000000, 0.024308
502.000000, 0.022805
501.000000, 0.022884
500.000000, 0.022111
499.000000, 0.022282
498.000000, 0.020927
497.000000, 0.020151
496.000000, 0.020948
495.000000, 0.021296
494.000000, 0.020771
493.000000, 0.021643
492.000000, 0.023109
491.000000, 0.024620
490.000000, 0.025397
489.000000, 0.028643
488.000000, 0.028469
487.000000, 0.029456
486.000000, 0.032357
485.000000, 0.034167
484.000000, 0.034673
483.000000, 0.035436
482.000000, 0.036640
481.000000, 0.036182
480.000000, 0.035808
479.000000, 0.035199
478.000000, 0.034771
477.000000, 0.033379
476.000000, 0.033217
475.000000, 0.031714
474.000000, 0.030661
473.000000, 0.029394
472.000000, 0.028432
471.000000, 0.027942
470.000000, 0.027055
469.000000, 0.026189
468.000000, 0.025909
467.000000, 0.024830
466.000000, 0.024347
465.000000, 0.023684
464.000000, 0.022470
463.000000, 0.022539
462.000000, 0.023423
461.000000, 0.022740
460.000000, 0.022921
459.000000, 0.021910
458.000000, 0.021419
457.000000, 0.022017
456.000000, 0.022150
455.000000, 0.021818
454.000000, 0.021619
453.000000, 0.021677
452.000000, 0.021769
451.000000, 0.021508
450.000000, 0.021962
449.000000, 0.021653
448.000000, 0.021002
447.000000, 0.021540
446.000000, 0.021981
445.000000, 0.022664
444.000000, 0.022967
443.000000, 0.021652
442.000000, 0.022006
441.000000, 0.022489
440.000000, 0.023811
439.000000, 0.025601
438.000000, 0.024986
437.000000, 0.024118
436.000000, 0.025525
435.000000, 0.026863
434.000000, 0.026754
433.000000, 0.027292
432.000000, 0.028569
431.000000, 0.029015
430.000000, 0.029351
429.000000, 0.030176
428.000000, 0.030947
427.000000, 0.030672
426.000000, 0.030350
425.000000, 0.030557
424.000000, 0.030136
423.000000, 0.030299
422.000000, 0.030898
421.000000, 0.030367
420.000000, 0.029781
419.000000, 0.030289
418.000000, 0.029876
417.000000, 0.029578
416.000000, 0.029605
415.000000, 0.028810
414.000000, 0.028568
413.000000, 0.029946
412.000000, 0.030711
411.000000, 0.031059
410.000000, 0.030370
409.000000, 0.029934
408.000000, 0.029580
407.000000, 0.029256
406.000000, 0.029634
405.000000, 0.030638
404.000000, 0.030710
403.000000, 0.030003
402.000000, 0.029256
401.000000, 0.029962
400.000000, 0.029635
399.000000, 0.028773
398.000000, 0.028585
397.000000, 0.029955
396.000000, 0.029405
395.000000, 0.028377
394.000000, 0.029173
393.000000, 0.029471
392.000000, 0.029774
391.000000, 0.030264
390.000000, 0.030130
389.000000, 0.029909
388.000000, 0.029111
387.000000, 0.030239
386.000000, 0.030240
385.000000, 0.029873
384.000000, 0.030491
383.000000, 0.031266
382.000000, 0.030059
381.000000, 0.030937
380.000000, 0.031299
379.000000, 0.030768
378.000000, 0.030135
377.000000, 0.030481
376.000000, 0.030850
375.000000, 0.030843
374.000000, 0.031142
373.000000, 0.031787
372.000000, 0.032481
371.000000, 0.031489
370.000000, 0.031060
369.000000, 0.032769
368.000000, 0.031765
367.000000, 0.032922
366.000000, 0.032466
365.000000, 0.033727
364.000000, 0.033273
363.000000, 0.033062
362.000000, 0.032594
361.000000, 0.033159
360.000000, 0.033104
359.000000, 0.033010
358.000000, 0.033699
357.000000, 0.033803
356.000000, 0.034437
355.000000, 0.035251
354.000000, 0.034437
353.000000, 0.035093
352.000000, 0.035648
351.000000, 0.035058
350.000000, 0.035472
349.000000, 0.036662
348.000000, 0.037161
347.000000, 0.038683
346.000000, 0.038587
345.000000, 0.039215
344.000000, 0.040681
343.000000, 0.041301
342.000000, 0.041055
341.000000, 0.041325
340.000000, 0.042825
339.000000, 0.045163
338.000000, 0.045143
337.000000, 0.045329
336.000000, 0.046491
335.000000, 0.047696
334.000000, 0.049026
333.000000, 0.049675
332.000000, 0.050430
331.000000, 0.051862
330.000000, 0.053870
329.000000, 0.054271
328.000000, 0.056130
327.000000, 0.058326
326.000000, 0.060472
325.000000, 0.061862
324.000000, 0.064483
323.000000, 0.064749
322.000000, 0.067729
321.000000, 0.069726
320.000000, 0.071000
319.000000, 0.072612
318.000000, 0.073523
317.000000, 0.074574
316.000000, 0.074286
315.000000, 0.075560
314.000000, 0.075971
313.000000, 0.076561
312.000000, 0.078075
311.000000, 0.080677
310.000000, 0.080957
309.000000, 0.080668
308.000000, 0.082628
307.000000, 0.082593
306.000000, 0.084272
305.000000, 0.085460
304.000000, 0.088080
303.000000, 0.087828
302.000000, 0.089374
301.000000, 0.091497
300.000000, 0.092341
