nm, A
800.000000, 0.000740
799.000000, 0.000916
798.000000, 0.002140
797.000000, 0.001612
796.000000, 0.000695
795.000000, 0.001382
794.000000, -0.000444
793.000000, -0.000042
792.000000, 0.001069
791.000000, 0.001332
790.000000, 0.002204
789.000000, -0.000236
788.000000, 0.002029
787.000000, 0.001015
786.000000, 0.000630
785.000000, 0.001024
784.000000, 0.000542
783.000000, 0.001759
782.000000, 0.002835
781.000000, 0.000868
780.000000, 0.002190
779.000000, 0.001928
778.000000, 0.000392
777.000000, 0.000534
776.000000, 0.001573
775.000000, 0.002060
774.000000, 0.001326
773.000000, 0.000837
772.000000, 0.000546
771.000000, 0.003279
770.000000, 0.002101
769.000000, 0.002380
768.000000, 0.001627
767.000000, 0.001421
766.000000, 0.000868
765.000000, 0.001017
764.000000, 0.000856
763.000000, 0.000216
762.000000, -0.000236
761.000000, 0.001335
760.000000, 0.002168
759.000000, 0.000294
758.000000, 0.001896
757.000000, 0.001537
756.000000, 0.000662
755.000000, 0.002172
754.000000, 0.001866
753.000000, 0.001930
752.000000, 0.002350
751.000000, 0.001927
750.000000, 0.001481
749.000000, 0.001881
748.000000, 0.001639
747.000000, 0.001539
746.000000, 0.000361
745.000000, 0.001270
744.000000, 0.001765
743.000000, 0.002300
742.000000, 0.002361
741.000000, 0.002010
740.000000, 0.000865
739.000000, 0.001887
738.000000, 0.002793
737.000000, 0.001992
736.000000, 0.001921
735.000000, 0.003030
734.000000, 0.002304
733.000000, 0.002384
732.000000, 0.003426
731.000000, 0.002919
730.000000, 0.002103
729.000000, 0.001923
728.000000, 0.000624
727.000000, 0.001399
726.000000, 0.002196
725.000000, 0.001719
724.000000, 0.001483
723.000000, 0.001635
722.000000, 0.002154
721.000000, 0.002694
720.000000, 0.001503
719.000000, 0.000936
718.000000, 0.001920
717.000000, 0.002151
716.000000, 0.001758
715.000000, 0.000794
714.000000, 0.001896
713.000000, 0.002345
712.000000, 0.001402
711.000000, 0.000877
710.000000, 0.000973
709.000000, 0.001711
708.000000, 0.001427
707.000000, 0.001208
706.000000, 0.002503
705.000000, 0.002381
704.000000, 0.001255
703.000000, 0.001293
702.000000, 0.001764
701.000000, 0.002217
700.000000, 0.001730
699.000000, 0.000941
698.000000, 0.002027
697.000000, 0.001933
696.000000, 0.001909
695.000000, 0.001749
694.000000, 0.001731
693.000000, 0.001629
692.000000, 0.001240
691.000000, 0.001670
690.000000, 0.001654
689.000000, 0.001568
688.000000, 0.002334
687.000000, 0.002613
686.000000, 0.001448
685.000000, 0.001792
684.000000, 0.002057
683.000000, 0.001319
682.000000, 0.001979
681.000000, 0.002894
680.000000, 0.002587
679.000000, 0.001788
678.000000, 0.001708
677.000000, 0.001989
676.000000, 0.002130
675.000000, 0.002101
674.000000, 0.001682
673.000000, 0.001920
672.000000, 0.003038
671.000000, 0.002838
670.000000, 0.001509
669.000000, 0.001727
668.000000, 0.001909
667.000000, 0.002008
666.000000, 0.002376
665.000000, 0.002752
664.000000, 0.002013
663.000000, 0.002005
662.000000, 0.002535
661.000000, 0.001313
660.000000, 0.001432
659.000000, 0.002724
658.000000, 0.003364
657.000000, 0.003376
656.000000, 0.002596
655.000000, 0.002285
654.000000, 0.002652
653.000000, 0.002708
652.000000, 0.002461
651.000000, 0.002698
650.000000, 0.002052
649.000000, 0.002342
648.000000, 0.002396
647.000000, 0.002132
646.000000, 0.002259
645.000000, 0.001391
644.000000, 0.001032
643.000000, 0.001656
642.000000, 0.001771
641.000000, 0.002911
640.000000, 0.002648
639.000000, 0.002030
638.000000, 0.003027
637.000000, 0.002520
636.000000, 0.002775
635.000000, 0.002756
634.000000, 0.002327
633.000000, 0.002856
632.000000, 0.003235
631.000000, 0.002546
630.000000, 0.002660
629.000000, 0.002033
628.000000, 0.001479
627.000000, 0.001906
626.000000, 0.002230
625.000000, 0.002694
624.000000, 0.002360
623.000000, 0.002222
622.000000, 0.002389
621.000000, 0.003259
620.000000, 0.002628
619.000000, 0.001999
618.000000, 0.001620
617.000000, 0.001673
616.000000, 0.003232
615.000000, 0.004559
614.000000, 0.003250
613.000000, 0.002732
612.000000, 0.002067
611.000000, 0.002131
610.000000, 0.003419
609.000000, 0.003001
608.000000, 0.004178
607.000000, 0.004695
606.000000, 0.003233
605.000000, 0.003675
604.000000, 0.002460
603.000000, 0.003755
602.000000, 0.004318
601.000000, 0.003317
600.000000, 0.003437
599.000000, 0.003069
598.000000, 0.002977
597.000000, 0.003518
596.000000, 0.003364
595.000000, 0.003683
594.000000, 0.003729
593.000000, 0.003234
592.000000, 0.003829
591.000000, 0.003931
590.000000, 0.003757
589.000000, 0.003602
588.000000, 0.003238
587.000000, 0.004258
586.000000, 0.004469
585.000000, 0.003836
584.000000, 0.004686
583.000000, 0.004158
582.000000, 0.003015
581.000000, 0.003162
580.000000, 0.004409
579.000000, 0.003323
578.000000, 0.003256
577.000000, 0.004006
576.000000, 0.003295
575.000000, 0.003760
574.000000, 0.003353
573.000000, 0.005214
572.000000, 0.003528
571.000000, 0.004221
570.000000, 0.003361
569.000000, 0.004328
568.000000, 0.004582
567.000000, 0.004788
566.000000, 0.004553
565.000000, 0.004212
564.000000, 0.004011
563.000000, 0.004654
562.000000, 0.005066
561.000000, 0.003130
560.000000, 0.003842
559.000000, 0.004031
558.000000, 0.005012
557.000000, 0.004767
556.000000, 0.004552
555.000000, 0.005654
554.000000, 0.005373
553.000000, 0.005208
552.000000, 0.004665
551.000000, 0.005250
550.000000, 0.004264
549.000000, 0.004451
548.000000, 0.005575
547.000000, 0.005725
546.000000, 0.004463
545.000000, 0.004447
544.000000, 0.005567
543.000000, 0.004736
542.000000, 0.004831
541.000000, 0.004829
540.000000, 0.005150
539.000000, 0.005331
538.000000, 0.006026
537.000000, 0.005943
536.000000, 0.005296
535.000000, 0.005766
534.000000, 0.005499
533.000000, 0.005372
532.000000, 0.004817
531.000000, 0.005563
530.000000, 0.006261
529.000000, 0.006022
528.000000, 0.005658
527.000000, 0.005181
526.000000, 0.006248
525.000000, 0.006668
524.000000, 0.006821
523.000000, 0.006404
522.000000, 0.006778
521.000000, 0.008520
520.000000, 0.009892
519.000000, 0.011809
518.000000, 0.015733
517.000000, 0.021527
516.000000, 0.028058
515.000000, 0.035856
514.000000, 0.041202
513.000000, 0.045945
512.000000, 0.045593
511.000000, 0.043872
510.000000, 0.040065
509.000000, 0.037755
508.000000, 0.034351
507.000000, 0.032684
506.000000, 0.030861
505.000000, 0.028257
504.000000, 0.027256
503.000000, 0.025491
502.000000, 0.024700
501.000000, 0.024454
500.000000, 0.023305
499.000000, 0.022535
498.000000, 0.022226
497.000000, 0.021940
496.000000, 0.021689
495.000000, 0.022141
494.000000, 0.022663
493.000000, 0.023814
492.000000, 0.024545
491.000000, 0.025708
490.000000, 0.026916
489.000000, 0.029345
488.000000, 0.029561
487.000000, 0.030462
486.000000, 0.033075
485.000000, 0.035569
484.000000, 0.036184
483.000000, 0.037675
482.000000, 0.038507
481.000000, 0.038095
480.000000, 0.037650
479.000000, 0.036951
478.000000, 0.036561
477.000000, 0.035692
476.000000, 0.035418
475.000000, 0.033381
474.000000, 0.032129
473.000000, 0.032007
472.000000, 0.030802
471.000000, 0.029971
470.000000, 0.028920
469.000000, 0.028890
468.000000, 0.028266
467.000000, 0.026659
466.000000, 0.026387
465.000000, 0.026569
464.000000, 0.025410
463.000000, 0.025655
462.000000, 0.026897
461.000000, 0.025624
460.000000, 0.025031
459.000000, 0.024388
458.000000, 0.024707
457.000000, 0.024297
456.000000, 0.024330
455.000000, 0.024954
454.000000, 0.024962
453.000000, 0.023858
452.000000, 0.024593
451.000000, 0.024730
450.000000, 0.024945
449.000000, 0.024245
448.000000, 0.023374
447.000000, 0.024085
446.000000, 0.024121
445.000000, 0.024980
444.000000, 0.025565
443.000000, 0.025367
442.000000, 0.025165
441.000000, 0.025529
440.000000, 0.026604
439.000000, 0.027524
438.000000, 0.027561
437.000000, 0.027398
436.000000, 0.028502
435.000000, 0.029884
434.000000, 0.030493
433.000000, 0.031076
432.000000, 0.031995
431.000000, 0.031866
430.000000, 0.032377
429.000000, 0.034378
428.000000, 0.034708
427.000000, 0.033906
426.000000, 0.033602
425.000000, 0.033563
424.000000, 0.033312
423.000000, 0.033568
422.000000, 0.034405
421.000000, 0.034108
420.000000, 0.033876
419.000000, 0.034383
418.000000, 0.033591
417.000000, 0.033471
416.000000, 0.033271
415.000000, 0.033065
414.000000, 0.033242
413.000000, 0.034030
412.000000, 0.034732
411.000000, 0.034294
410.000000, 0.033568
409.000000, 0.033856
408.000000, 0.033571
407.000000, 0.032945
406.000000, 0.034040
405.000000, 0.034398
404.000000, 0.034366
403.000000, 0.033715
402.000000, 0.032884
401.000000, 0.033684
400.000000, 0.033320
399.000000, 0.033227
398.000000, 0.033358
397.000000, 0.034047
396.000000, 0.033199
395.000000, 0.032969
394.000000, 0.033915
393.000000, 0.034099
392.000000, 0.034952
391.000000, 0.034690
390.000000, 0.033803
389.000000, 0.034311
388.000000, 0.034349
387.000000, 0.034565
386.000000, 0.035545
385.000000, 0.035391
384.000000, 0.035132
383.000000, 0.035187
382.000000, 0.034742
381.000000, 0.035903
380.000000, 0.036004
379.000000, 0.035590
378.000000, 0.036009
377.000000, 0.036181
376.000000, 0.036250
375.000000, 0.036426
374.000000, 0.035737
373.000000, 0.036003
372.000000, 0.036967
371.000000, 0.037761
370.000000, 0.037238
369.000000, 0.037496
368.000000, 0.036708
367.000000, 0.037826
366.000000, 0.038087
365.000000, 0.039033
364.000000, 0.037397
363.000000, 0.038179
362.000000, 0.038297
361.000000, 0.038913
360.000000, 0.038130
359.000000, 0.038939
358.000000, 0.038852
357.000000, 0.039057
356.000000, 0.039308
355.000000, 0.040025
354.000000, 0.039782
353.000000, 0.040822
352.000000, 0.041143
351.000000, 0.041769
350.000000, 0.041314
349.000000, 0.041663
348.000000, 0.042982
347.000000, 0.044336
346.000000, 0.044903
345.000000, 0.045104
344.000000, 0.046796
343.000000, 0.047249
342.000000, 0.047675
341.000000, 0.048536
340.000000, 0.049413
339.000000, 0.051140
338.000000, 0.051395
337.000000, 0.052156
336.000000, 0.052965
335.000000, 0.054207
334.000000, 0.055143
333.000000, 0.055292
332.000000, 0.058122
331.000000, 0.059078
330.000000, 0.060985
329.000000, 0.060258
328.000000, 0.063158
327.000000, 0.064326
326.000000, 0.067461
325.000000, 0.068423
324.000000, 0.070795
323.000000, 0.072553
322.000000, 0.073593
321.000000, 0.075957
320.000000, 0.078128
319.000000, 0.080245
318.000000, 0.080963
317.000000, 0.082568
316.000000, 0.082638
315.000000, 0.084452
314.000000, 0.084276
313.000000, 0.085757
312.000000, 0.088317
311.000000, 0.089457
310.000000, 0.090486
309.000000, 0.090149
308.000000, 0.091831
307.000000, 0.093311
306.000000, 0.094151
305.000000, 0.096800
304.000000, 0.097889
303.000000, 0.099129
302.000000, 0.100066
301.000000, 0.101170
300.000000, 0.103964
