nm, A
800.000000, -0.002148
799.000000, -0.002320
798.000000, -0.001965
797.000000, -0.001830
796.000000, -0.001295
795.000000, -0.001400
794.000000, -0.003182
793.000000, -0.002922
792.000000, -0.001540
791.000000, -0.002394
790.000000, -0.001386
789.000000, -0.003303
788.000000, -0.001460
787.000000, -0.001949
786.000000, -0.001413
785.000000, -0.002199
784.000000, -0.000900
783.000000, -0.001148
782.000000, -0.001007
781.000000, -0.001571
780.000000, -0.000955
779.000000, -0.000201
778.000000, -0.001931
777.000000, -0.002563
776.000000, -0.001592
775.000000, -0.001515
774.000000, -0.002791
773.000000, -0.003260
772.000000, -0.002368
771.000000, -0.001547
770.000000, -0.001735
769.000000, -0.001392
768.000000, -0.000986
767.000000, -0.001287
766.000000, -0.002292
765.000000, -0.002017
764.000000, -0.003073
763.000000, -0.002189
762.000000, -0.003529
761.000000, -0.001907
760.000000, -0.001840
759.000000, -0.002551
758.000000, -0.001540
757.000000, -0.002293
756.000000, -0.002570
755.000000, -0.001341
754.000000, -0.001282
753.000000, -0.002437
752.000000, -0.002809
751.000000, -0.002361
750.000000, -0.001630
749.000000, -0.001237
748.000000, -0.001665
747.000000, -0.002094
746.000000, -0.002899
745.000000, -0.002889
744.000000, -0.002627
743.000000, -0.000689
742.000000, -0.001859
741.000000, -0.002166
740.000000, -0.002287
739.000000, -0.002598
738.000000, -0.002658
737.000000, -0.002181
736.000000, -0.001688
735.000000, -0.001031
734.000000, -0.001225
733.000000, -0.000825
732.000000, -0.001322
731.000000, -0.002360
730.000000, -0.002084
729.000000, -0.000748
728.000000, -0.001426
727.000000, -0.002332
726.000000, -0.002187
725.000000, -0.002465
724.000000, -0.001673
723.000000, -0.001103
722.000000, -0.001224
721.000000, -0.001865
720.000000, -0.002753
719.000000, -0.003065
718.000000, -0.002316
717.000000, -0.001310
716.000000, -0.002216
715.000000, -0.002388
714.000000, -0.002295
713.000000, -0.002624
712.000000, -0.002295
711.000000, -0.002610
710.000000, -0.002638
709.000000, -0.002999
708.000000, -0.002074
707.000000, -0.001532
706.000000, -0.001946
705.000000, -0.001213
704.000000, -0.002318
703.000000, -0.002909
702.000000, -0.001824
701.000000, -0.001946
700.000000, -0.002134
699.000000, -0.002198
698.000000, -0.001779
697.000000, -0.002455
696.000000, -0.002422
695.000000, -0.001878
694.000000, -0.002484
693.000000, -0.001597
692.000000, -0.001542
691.000000, -0.001937
690.000000, -0.002171
689.000000, -0.003162
688.000000, -0.003222
687.000000, -0.001976
686.000000, -0.001274
685.000000, -0.001447
684.000000, -0.001826
683.000000, -0.002848
682.000000, -0.002716
681.000000, -0.001450
680.000000, -0.001678
679.000000, -0.002574
678.000000, -0.002127
677.000000, -0.002111
676.000000, -0.002701
675.000000, -0.002485
674.000000, -0.002817
673.000000, -0.002332
672.000000, -0.001114
671.000000, -0.002437
670.000000, -0.003438
669.000000, -0.002726
668.000000, -0.002249
667.000000, -0.002072
666.000000, -0.001878
665.000000, -0.001532
664.000000, -0.002099
663.000000, -0.001949
662.000000, -0.002242
661.000000, -0.002542
660.000000, -0.001913
659.000000, -0.002076
658.000000, -0.001422
657.000000, -0.000542
656.000000, -0.001791
655.000000, -0.003017
654.000000, -0.001891
653.000000, -0.000899
652.000000, -0.000710
651.000000, -0.001073
650.000000, -0.002502
649.000000, -0.002007
648.000000, -0.001028
647.000000, -0.002035
646.000000, -0.001643
645.000000, -0.002052
644.000000, -0.002578
643.000000, -0.001959
642.000000, -0.002660
641.000000, -0.002693
640.000000, -0.001754
639.000000, -0.002075
638.000000, -0.001257
637.000000, -0.000949
636.000000, -0.000911
635.000000, -0.001024
634.000000, -0.001443
633.000000, -0.002226
632.000000, -0.001905
631.000000, -0.001750
630.000000, -0.001333
629.000000, -0.001899
628.000000, -0.002152
627.000000, -0.002072
626.000000, -0.002427
625.000000, -0.001513
624.000000, -0.001836
623.000000, -0.001496
622.000000, -0.000775
621.000000, -0.001242
620.000000, -0.001628
619.000000, -0.001633
618.000000, -0.001537
617.000000, -0.002706
616.000000, -0.001254
615.000000, -0.000262
614.000000, -0.000544
613.000000, -0.001883
612.000000, -0.002637
611.000000, -0.001847
610.000000, -0.001195
609.000000, -0.001671
608.000000, -0.000209
607.000000, -0.000089
606.000000, -0.001670
605.000000, -0.001462
604.000000, -0.001721
603.000000, -0.001061
602.000000, -0.000734
601.000000, -0.001802
600.000000, -0.001712
599.000000, -0.001286
598.000000, -0.001306
597.000000, -0.000847
596.000000, -0.001322
595.000000, -0.000718
594.000000, -0.001321
593.000000, -0.001614
592.000000, -0.001044
591.000000, -0.000528
590.000000, 0.000013
589.000000, -0.001068
588.000000, -0.001225
587.000000, -0.000533
586.000000, -0.000635
585.000000, -0.001295
584.000000, -0.000108
583.000000, -0.001020
582.000000, -0.001332
581.000000, -0.000634
580.000000, -0.000743
579.000000, -0.001194
578.000000, -0.001256
577.000000, -0.000748
576.000000, -0.000294
575.000000, -0.000956
574.000000, -0.000491
573.000000, -0.000200
572.000000, -0.000680
571.000000, -0.001344
570.000000, -0.001300
569.000000, -0.000567
568.000000, -0.000887
567.000000, -0.001031
566.000000, -0.000971
565.000000, -0.000637
564.000000, 0.000148
563.000000, 0.000798
562.000000, 0.000389
561.000000, -0.000629
560.000000, -0.000595
559.000000, 0.000409
558.000000, -0.000017
557.000000, 0.000568
556.000000, -0.000246
555.000000, 0.000399
554.000000, -0.000285
553.000000, 0.000070
552.000000, 0.000180
551.000000, 0.001543
550.000000, 0.000536
549.000000, 0.001091
548.000000, 0.001090
547.000000, 0.001262
546.000000, 0.000697
545.000000, 0.001474
544.000000, 0.000525
543.000000, 0.000820
542.000000, 0.000910
541.000000, 0.000483
540.000000, 0.001139
539.000000, 0.001282
538.000000, 0.001415
537.000000, 0.000861
536.000000, 0.001393
535.000000, 0.001188
534.000000, 0.001257
533.000000, 0.001860
532.000000, 0.000893
531.000000, 0.002455
530.000000, 0.002005
529.000000, 0.002376
528.000000, 0.001781
527.000000, 0.001983
526.000000, 0.002458
525.000000, 0.002205
524.000000, 0.003853
523.000000, 0.004838
522.000000, 0.005864
521.000000, 0.008387
520.000000, 0.011640
519.000000, 0.016658
518.000000, 0.027764
517.000000, 0.042272
516.000000, 0.063842
515.000000, 0.089556
514.000000, 0.108749
513.000000, 0.119741
512.000000, 0.120086
511.000000, 0.112921
510.000000, 0.102408
509.000000, 0.094089
508.000000, 0.086134
507.000000, 0.079401
506.000000, 0.072509
505.000000, 0.065939
504.000000, 0.061642
503.000000, 0.058900
502.000000, 0.054825
501.000000, 0.053315
500.000000, 0.050227
499.000000, 0.049107
498.000000, 0.047562
497.000000, 0.047447
496.000000, 0.047759
495.000000, 0.048030
494.000000, 0.050056
493.000000, 0.051507
492.000000, 0.052453
491.000000, 0.055945
490.000000, 0.059861
489.000000, 0.063555
488.000000, 0.068195
487.000000, 0.073576
486.000000, 0.079077
485.000000, 0.084717
484.000000, 0.087725
483.000000, 0.090249
482.000000, 0.093071
481.000000, 0.093277
480.000000, 0.091384
479.000000, 0.089883
478.000000, 0.088387
477.000000, 0.084569
476.000000, 0.082269
475.000000, 0.078881
474.000000, 0.075178
473.000000, 0.072196
472.000000, 0.068762
471.000000, 0.066277
470.000000, 0.063935
469.000000, 0.062925
468.000000, 0.061297
467.000000, 0.057896
466.000000, 0.056035
465.000000, 0.055687
464.000000, 0.053736
463.000000, 0.052724
462.000000, 0.053060
461.000000, 0.052873
460.000000, 0.051568
459.000000, 0.050757
458.000000, 0.049662
457.000000, 0.049140
456.000000, 0.049380
455.000000, 0.049496
454.000000, 0.049493
453.000000, 0.048768
452.000000, 0.048787
451.000000, 0.048866
450.000000, 0.049031
449.000000, 0.048355
448.000000, 0.048054
447.000000, 0.049107
446.000000, 0.049671
445.000000, 0.050439
444.000000, 0.050776
443.000000, 0.050543
442.000000, 0.051070
441.000000, 0.052718
440.000000, 0.054757
439.000000, 0.056666
438.000000, 0.058045
437.000000, 0.058233
436.000000, 0.059803
435.000000, 0.062300
434.000000, 0.064078
433.000000, 0.065313
432.000000, 0.066866
431.000000, 0.068141
430.000000, 0.069232
429.000000, 0.071091
428.000000, 0.072521
427.000000, 0.072638
426.000000, 0.072474
425.000000, 0.072802
424.000000, 0.072801
423.000000, 0.072881
422.000000, 0.073276
421.000000, 0.073330
420.000000, 0.072831
419.000000, 0.072828
418.000000, 0.072363
417.000000, 0.072261
416.000000, 0.071367
415.000000, 0.070505
414.000000, 0.070870
413.000000, 0.071130
412.000000, 0.071375
411.000000, 0.072398
410.000000, 0.072476
409.000000, 0.071907
408.000000, 0.071233
407.000000, 0.071398
406.000000, 0.072058
405.000000, 0.073004
404.000000, 0.072071
403.000000, 0.070478
402.000000, 0.070635
401.000000, 0.070693
400.000000, 0.070297
399.000000, 0.070094
398.000000, 0.069945
397.000000, 0.071465
396.000000, 0.071173
395.000000, 0.069853
394.000000, 0.070413
393.000000, 0.070328
392.000000, 0.071030
391.000000, 0.070262
390.000000, 0.070278
389.000000, 0.070218
388.000000, 0.070570
387.000000, 0.070595
386.000000, 0.071347
385.000000, 0.072063
384.000000, 0.071767
383.000000, 0.072346
382.000000, 0.072394
381.000000, 0.073692
380.000000, 0.073591
379.000000, 0.072878
378.000000, 0.072766
377.000000, 0.074077
376.000000, 0.074125
375.000000, 0.074208
374.000000, 0.073441
373.000000, 0.074213
372.000000, 0.074376
371.000000, 0.075593
370.000000, 0.075322
369.000000, 0.076567
368.000000, 0.075911
367.000000, 0.076722
366.000000, 0.076775
365.000000, 0.077296
364.000000, 0.076837
363.000000, 0.077730
362.000000, 0.077934
361.000000, 0.079501
360.000000, 0.078290
359.000000, 0.078615
358.000000, 0.080123
357.000000, 0.081556
356.000000, 0.080100
355.000000, 0.081398
354.000000, 0.081974
353.000000, 0.083382
352.000000, 0.083989
351.000000, 0.084570
350.000000, 0.085874
349.000000, 0.087434
348.000000, 0.089917
347.000000, 0.092100
346.000000, 0.092755
345.000000, 0.094419
344.000000, 0.096741
343.000000, 0.098374
342.000000, 0.099864
341.000000, 0.101364
340.000000, 0.104535
339.000000, 0.107464
338.000000, 0.109513
337.000000, 0.111277
336.000000, 0.114007
335.000000, 0.115780
334.000000, 0.118306
333.000000, 0.121536
332.000000, 0.124884
331.000000, 0.127651
330.000000, 0.132016
329.000000, 0.135377
328.000000, 0.139786
327.000000, 0.144660
326.000000, 0.151096
325.000000, 0.155447
324.000000, 0.162120
323.000000, 0.166901
322.000000, 0.172650
321.000000, 0.178292
320.000000, 0.183559
319.000000, 0.186614
318.000000, 0.189277
317.000000, 0.192648
316.000000, 0.194847
315.000000, 0.197352
314.000000, 0.199592
313.000000, 0.202397
312.000000, 0.205307
311.000000, 0.209727
310.000000, 0.211613
309.000000, 0.213653
308.000000, 0.217487
307.000000, 0.220709
306.000000, 0.224089
305.000000, 0.227406
304.000000, 0.231376
303.000000, 0.233719
302.000000, 0.235803
301.000000, 0.237750
300.000000, 0.242068
