4.410000000000000000e+02	2.213421983058063347e+02
4.420000000000000000e+02	2.293034514290342543e+02
4.430000000000000000e+02	2.375120811580618181e+02
4.440000000000000000e+02	2.459742013605090563e+02
4.450000000000000000e+02	2.546960172586998112e+02
4.460000000000000000e+02	2.636838245400383585e+02
4.470000000000000000e+02	2.729440083602510185e+02
4.480000000000000000e+02	2.824830422366904941e+02
4.490000000000000000e+02	2.923074868289365895e+02
4.500000000000000000e+02	3.024239886039505905e+02
4.510000000000000000e+02	3.128392783830923349e+02
4.520000000000000000e+02	3.235601697683412681e+02
4.530000000000000000e+02	3.345935574451191314e+02
4.540000000000000000e+02	3.459464153591659397e+02
4.550000000000000000e+02	3.576257947649733637e+02
4.560000000000000000e+02	3.696388221433556396e+02
4.570000000000000000e+02	3.819926969857968970e+02
4.580000000000000000e+02	3.946946894433006605e+02
4.590000000000000000e+02	4.077521378375366794e+02
4.600000000000000000e+02	4.211724460321813694e+02
4.610000000000000000e+02	4.349630806624256252e+02
4.620000000000000000e+02	4.491315682207378472e+02
4.630000000000000000e+02	4.636854919970607511e+02
4.640000000000000000e+02	4.786324888717407475e+02
4.650000000000000000e+02	4.939802459595980508e+02
4.660000000000000000e+02	5.097364971036751626e+02
4.670000000000000000e+02	5.259090192173184732e+02
4.680000000000000000e+02	5.425056284733959728e+02
4.690000000000000000e+02	5.595341763395789485e+02
4.700000000000000000e+02	5.770025454587708964e+02
4.710000000000000000e+02	5.949186453739199578e+02
4.720000000000000000e+02	6.132904080965944331e+02
4.730000000000000000e+02	6.321257835188874878e+02
4.740000000000000000e+02	6.514327346683570568e+02
4.750000000000000000e+02	6.712192328059128386e+02
4.760000000000000000e+02	6.914932523667092710e+02
4.770000000000000000e+02	7.122627657443223370e+02
4.780000000000000000e+02	7.335357379186474418e+02
4.790000000000000000e+02	7.553201209281767206e+02
4.800000000000000000e+02	7.776238481875151365e+02
4.810000000000000000e+02	8.004548286512963386e+02
4.820000000000000000e+02	8.238209408265732918e+02
4.830000000000000000e+02	8.477300266407503386e+02
4.840000000000000000e+02	8.721898852026580471e+02
4.850000000000000000e+02	8.972082666735727798e+02
4.860000000000000000e+02	9.227928674452582527e+02
4.870000000000000000e+02	9.489513327988676110e+02
4.880000000000000000e+02	9.756912966159346752e+02
4.890000000000000000e+02	1.003020589403512759e+03
4.900000000000000000e+02	1.030948153684201316e+03
4.910000000000000000e+02	1.059487710959624792e+03
4.920000000000000000e+02	1.088671322444994985e+03
4.930000000000000000e+02	1.118595767805816877e+03
4.940000000000000000e+02	1.149569083334918787e+03
4.950000000000000000e+02	1.182537394903368750e+03
4.960000000000000000e+02	1.220227713124073944e+03
4.970000000000000000e+02	1.269949312710412642e+03
4.980000000000000000e+02	1.349846993920282330e+03
4.990000000000000000e+02	1.501512151552051364e+03
5.000000000000000000e+02	1.812681904510511458e+03
5.010000000000000000e+02	2.452952443397890420e+03
5.020000000000000000e+02	3.720902745165448323e+03
5.030000000000000000e+02	6.090914074958801393e+03
5.040000000000000000e+02	1.023300346269823422e+04
5.050000000000000000e+02	1.696533641616682507e+04
5.060000000000000000e+02	2.709912319725730777e+04
5.070000000000000000e+02	4.116310559470149019e+04
5.080000000000000000e+02	5.905371424923266750e+04
5.090000000000000000e+02	7.972917546787935134e+04
5.100000000000000000e+02	1.011101190136369405e+05
5.110000000000000000e+02	1.203200826386088884e+05
5.120000000000000000e+02	1.342810870917869033e+05
5.130000000000000000e+02	1.405124015841767832e+05
5.140000000000000000e+02	1.378517069841832563e+05
5.150000000000000000e+02	1.268113645402686088e+05
5.160000000000000000e+02	1.094200640406759630e+05
5.170000000000000000e+02	8.861694498327212932e+04
5.180000000000000000e+02	6.744630411803856259e+04
5.190000000000000000e+02	4.835404342564773106e+04
5.200000000000000000e+02	3.279895745508662367e+04
5.210000000000000000e+02	2.122836297193070641e+04
5.220000000000000000e+02	1.332184603748218797e+04
5.230000000000000000e+02	8.341439088008832186e+03
5.240000000000000000e+02	5.446250617473557213e+03
5.250000000000000000e+02	3.896508265811038200e+03
5.260000000000000000e+02	3.139761127132523143e+03
5.270000000000000000e+02	2.812488584782010548e+03
5.280000000000000000e+02	2.699905884129819697e+03
5.290000000000000000e+02	2.686797806717032472e+03
5.300000000000000000e+02	2.716653905149212733e+03
5.310000000000000000e+02	2.764006873208556044e+03
5.320000000000000000e+02	2.818273145922466028e+03
5.330000000000000000e+02	2.875385111406419583e+03
5.340000000000000000e+02	2.933892615249611936e+03
5.350000000000000000e+02	2.993313595375011573e+03
5.360000000000000000e+02	3.053496420583342115e+03
5.370000000000000000e+02	3.114393603566464662e+03
5.380000000000000000e+02	3.175987844219157523e+03
5.390000000000000000e+02	3.238269710066214884e+03
5.400000000000000000e+02	3.301231402049948429e+03
5.410000000000000000e+02	3.364865138512351223e+03
5.420000000000000000e+02	3.429162764152066757e+03
5.430000000000000000e+02	3.494115659866769874e+03
5.440000000000000000e+02	3.559714721293658386e+03
5.450000000000000000e+02	3.625950352119657055e+03
5.460000000000000000e+02	3.692812460568634378e+03
5.470000000000000000e+02	3.760290456760869347e+03
5.480000000000000000e+02	3.828373250525452022e+03
5.490000000000000000e+02	3.897049249600791427e+03
5.500000000000000000e+02	3.966306358220067068e+03
5.510000000000000000e+02	4.036131976088191095e+03
5.520000000000000000e+02	4.106512997758090933e+03
5.530000000000000000e+02	4.177435812413975327e+03
5.540000000000000000e+02	4.248886304068968457e+03
5.550000000000000000e+02	4.320849852184151132e+03
5.560000000000000000e+02	4.393311332715649769e+03
5.570000000000000000e+02	4.466255119596073200e+03
5.580000000000000000e+02	4.539665086656170388e+03
5.590000000000000000e+02	4.613524609992191472e+03
5.600000000000000000e+02	4.687816570784005307e+03
5.610000000000000000e+02	4.762523358568565527e+03
5.620000000000000000e+02	4.837626874972911537e+03
5.630000000000000000e+02	4.913108537910383347e+03
5.640000000000000000e+02	4.988949286243269853e+03
5.650000000000000000e+02	5.065129584914620864e+03
5.660000000000000000e+02	5.141629430551460246e+03
5.670000000000000000e+02	5.218428357541102741e+03
5.680000000000000000e+02	5.295505444581785923e+03
5.690000000000000000e+02	5.372839321708278476e+03
5.700000000000000000e+02	5.450408177792587594e+03
5.710000000000000000e+02	5.528189768519355312e+03
5.720000000000000000e+02	5.606161424834951504e+03
5.730000000000000000e+02	5.684300061868753801e+03
5.740000000000000000e+02	5.762582188324463459e+03
5.750000000000000000e+02	5.840983916338831477e+03
5.760000000000000000e+02	5.919480971804496221e+03
5.770000000000000000e+02	5.998048705153105402e+03
5.780000000000000000e+02	6.076662102594304088e+03
5.790000000000000000e+02	6.155295797805576512e+03
5.800000000000000000e+02	6.233924084067333752e+03
5.810000000000000000e+02	6.312520926837068146e+03
5.820000000000000000e+02	6.391059976755797834e+03
5.830000000000000000e+02	6.469514583079431759e+03
5.840000000000000000e+02	6.547857807527126170e+03
5.850000000000000000e+02	6.626062438538077004e+03
5.860000000000000000e+02	6.704101005927672304e+03
5.870000000000000000e+02	6.781945795933301270e+03
5.880000000000000000e+02	6.859568866639597218e+03
5.890000000000000000e+02	6.936942063772286019e+03
5.900000000000000000e+02	7.014037036849323158e+03
5.910000000000000000e+02	7.090825255677360474e+03
5.920000000000000000e+02	7.167278027181171637e+03
5.930000000000000000e+02	7.243366512553035136e+03
5.940000000000000000e+02	7.319061744708626065e+03
5.950000000000000000e+02	7.394334646035433252e+03
5.960000000000000000e+02	7.469156046419257109e+03
5.970000000000000000e+02	7.543496701533856140e+03
5.980000000000000000e+02	7.617327311378337981e+03
5.990000000000000000e+02	7.690618539046487967e+03
6.000000000000000000e+02	7.763341029711747069e+03
6.010000000000000000e+02	7.835465429811204558e+03
6.020000000000000000e+02	7.906962406411515076e+03
6.030000000000000000e+02	7.977802666739334200e+03
6.040000000000000000e+02	8.047956977858462778e+03
6.050000000000000000e+02	8.117396186475610193e+03
6.060000000000000000e+02	8.186091238856317432e+03
6.070000000000000000e+02	8.254013200832341681e+03
6.080000000000000000e+02	8.321133277881506729e+03
6.090000000000000000e+02	8.387422835260766078e+03
6.100000000000000000e+02	8.452853418173062892e+03
6.110000000000000000e+02	8.517396771948278911e+03
6.120000000000000000e+02	8.581024862218488124e+03
6.130000000000000000e+02	8.643709895067495381e+03
6.140000000000000000e+02	8.705424337134583766e+03
6.150000000000000000e+02	8.766140935652256303e+03
6.160000000000000000e+02	8.825832738397693902e+03
6.170000000000000000e+02	8.884473113537585959e+03
6.180000000000000000e+02	8.942035769346044617e+03
6.190000000000000000e+02	8.998494773775191788e+03
6.200000000000000000e+02	9.053824573858168151e+03
6.210000000000000000e+02	9.108000014924286006e+03
6.220000000000000000e+02	9.160996359606198894e+03
6.230000000000000000e+02	9.212789306618989940e+03
6.240000000000000000e+02	9.263355009291337410e+03
6.250000000000000000e+02	9.312670093828974132e+03
6.260000000000000000e+02	9.360711677290926673e+03
6.270000000000000000e+02	9.407457385259200237e+03
6.280000000000000000e+02	9.452885369182838986e+03
6.290000000000000000e+02	9.496974323377589826e+03
6.300000000000000000e+02	9.539703501662630515e+03
6.310000000000000000e+02	9.581052733616243131e+03
6.320000000000000000e+02	9.621002440432583171e+03
6.330000000000000000e+02	9.659533650362129265e+03
6.340000000000000000e+02	9.696628013718745933e+03
6.350000000000000000e+02	9.732267817436806581e+03
6.360000000000000000e+02	9.766435999162144071e+03
6.370000000000000000e+02	9.799116160861211029e+03
6.380000000000000000e+02	9.830292581933217662e+03
6.390000000000000000e+02	9.859950231810578771e+03
6.400000000000000000e+02	9.888074782033552765e+03
6.410000000000000000e+02	9.914652617785468465e+03
6.420000000000000000e+02	9.939670848875575757e+03
6.430000000000000000e+02	9.963117320157076392e+03
6.440000000000000000e+02	9.984980621368587890e+03
6.450000000000000000e+02	1.000525009638786651e+04
6.460000000000000000e+02	1.002391585188727367e+04
6.470000000000000000e+02	1.004096876538117976e+04
6.480000000000000000e+02	1.005640049265609923e+04
6.490000000000000000e+02	1.007020347457511889e+04
6.500000000000000000e+02	1.008237094324882855e+04
6.510000000000000000e+02	1.009289692756571640e+04
6.520000000000000000e+02	1.010177625807570621e+04
6.530000000000000000e+02	1.010900457122121043e+04
6.540000000000000000e+02	1.011457831291090406e+04
6.550000000000000000e+02	1.011849474143208499e+04
6.560000000000000000e+02	1.012075192969828277e+04
6.570000000000000000e+02	1.012134876682956019e+04
6.580000000000000000e+02	1.012028495906365424e+04
6.590000000000000000e+02	1.011756102999695941e+04
6.600000000000000000e+02	1.011317832015501699e+04
6.610000000000000000e+02	1.010713898589307792e+04
6.620000000000000000e+02	1.009944599762791586e+04
6.630000000000000000e+02	1.009010313740299898e+04
6.640000000000000000e+02	1.007911499578976691e+04
6.650000000000000000e+02	1.006648696812857270e+04
6.660000000000000000e+02	1.005222525011361904e+04
6.670000000000000000e+02	1.003633683272693088e+04
6.680000000000000000e+02	1.001882949652715615e+04
6.690000000000000000e+02	9.999711805299753905e+03
6.700000000000000000e+02	9.978993099075791179e+03
6.710000000000000000e+02	9.956683486527339483e+03
6.720000000000000000e+02	9.932793836748129252e+03
6.730000000000000000e+02	9.907335770428815522e+03
6.740000000000000000e+02	9.880321650436890195e+03
6.750000000000000000e+02	9.851764571811934729e+03
6.760000000000000000e+02	9.821678351187525550e+03
6.770000000000000000e+02	9.790077515651784779e+03
6.780000000000000000e+02	9.756977291059110939e+03
6.790000000000000000e+02	9.722393589806302771e+03
6.800000000000000000e+02	9.686342998086744046e+03
6.810000000000000000e+02	9.648842762637008491e+03
6.820000000000000000e+02	9.609910776990658633e+03
6.830000000000000000e+02	9.569565567254585403e+03
6.840000000000000000e+02	9.527826277423720967e+03
6.850000000000000000e+02	9.484712654250390187e+03
6.860000000000000000e+02	9.440245031685062713e+03
6.870000000000000000e+02	9.394444314905615101e+03
6.880000000000000000e+02	9.347331963952705337e+03
6.890000000000000000e+02	9.298929976989109491e+03
6.900000000000000000e+02	9.249260873201345021e+03
6.910000000000000000e+02	9.198347675362123482e+03
6.920000000000000000e+02	9.146213892072519229e+03
6.930000000000000000e+02	9.092883499703006237e+03
6.940000000000000000e+02	9.038380924052724367e+03
6.950000000000000000e+02	8.982731021746601982e+03
6.960000000000000000e+02	8.925959061390103670e+03
6.970000000000000000e+02	8.868090704501550135e+03
6.980000000000000000e+02	8.809151986242082785e+03
6.990000000000000000e+02	8.749169295963502009e+03
7.000000000000000000e+02	8.688169357594175381e+03
7.010000000000000000e+02	8.626179209883393924e+03
7.020000000000000000e+02	8.563226186524490913e+03
7.030000000000000000e+02	8.499337896177064977e+03
7.040000000000000000e+02	8.434542202408641970e+03
7.050000000000000000e+02	8.368867203576008251e+03
7.060000000000000000e+02	8.302341212666407955e+03
7.070000000000000000e+02	8.234992737118676814e+03
7.080000000000000000e+02	8.166850458644264108e+03
7.090000000000000000e+02	8.097943213067889701e+03
7.100000000000000000e+02	8.028299970207493061e+03
7.110000000000000000e+02	7.957949813812826505e+03
7.120000000000000000e+02	7.886921921581879360e+03
7.130000000000000000e+02	7.815245545274056894e+03
7.140000000000000000e+02	7.742949990938733208e+03
7.150000000000000000e+02	7.670064599277548041e+03
7.160000000000000000e+02	7.596618726158448226e+03
7.170000000000000000e+02	7.522641723299190744e+03
7.180000000000000000e+02	7.448162919137600511e+03
7.190000000000000000e+02	7.373211599905574985e+03
7.200000000000000000e+02	7.297816990923340200e+03
7.210000000000000000e+02	7.222008238130161772e+03
7.220000000000000000e+02	7.145814389867156024e+03
7.230000000000000000e+02	7.069264378927497091e+03
7.240000000000000000e+02	6.992387004888832053e+03
7.250000000000000000e+02	6.915210916742176778e+03
7.260000000000000000e+02	6.837764595831181396e+03
7.270000000000000000e+02	6.760076339115043083e+03
7.280000000000000000e+02	6.682174242767914620e+03
7.290000000000000000e+02	6.604086186127060500e+03
7.300000000000000000e+02	6.525839816001544023e+03
7.310000000000000000e+02	6.447462531352612132e+03
7.320000000000000000e+02	6.368981468356454570e+03
7.330000000000000000e+02	6.290423485859393622e+03
7.340000000000000000e+02	6.211815151235061421e+03
7.350000000000000000e+02	6.133182726652463316e+03
7.360000000000000000e+02	6.054552155763328301e+03
7.370000000000000000e+02	5.975949050816505405e+03
7.380000000000000000e+02	5.897398680206627432e+03
7.390000000000000000e+02	5.818925956463621333e+03
7.400000000000000000e+02	5.740555424689117899e+03
7.410000000000000000e+02	5.662311251445169546e+03
7.420000000000000000e+02	5.584217214100150159e+03
7.430000000000000000e+02	5.506296690636056155e+03
7.440000000000000000e+02	5.428572649920930417e+03
7.450000000000000000e+02	5.351067642449462255e+03
7.460000000000000000e+02	5.273803791554320924e+03
7.470000000000000000e+02	5.196802785090121688e+03
7.480000000000000000e+02	5.120085867591454189e+03
7.490000000000000000e+02	5.043673832905749805e+03
7.500000000000000000e+02	4.967587017301284504e+03
7.510000000000000000e+02	4.891845293050015243e+03
7.520000000000000000e+02	4.816468062484450456e+03
7.530000000000000000e+02	4.741474252527189492e+03
7.540000000000000000e+02	4.666882309691294722e+03
7.550000000000000000e+02	4.592710195549108903e+03
7.560000000000000000e+02	4.518975382666636506e+03
7.570000000000000000e+02	4.445694851000175731e+03
7.580000000000000000e+02	4.372885084751327668e+03
7.590000000000000000e+02	4.300562069676126157e+03
7.600000000000000000e+02	4.228741290843544448e+03
7.610000000000000000e+02	4.157437730838197240e+03
7.620000000000000000e+02	4.086665868401662919e+03
7.630000000000000000e+02	4.016439677506411954e+03
7.640000000000000000e+02	3.946772626855964972e+03
7.650000000000000000e+02	3.877677679804506170e+03
7.660000000000000000e+02	3.809167294688819766e+03
7.670000000000000000e+02	3.741253425565082125e+03
7.680000000000000000e+02	3.673947523342702880e+03
7.690000000000000000e+02	3.607260537307083268e+03
7.700000000000000000e+02	3.541202917022890688e+03
7.710000000000000000e+02	3.475784614609130131e+03
7.720000000000000000e+02	3.411015087377057171e+03
7.730000000000000000e+02	3.346903300821716130e+03
7.740000000000000000e+02	3.283457731957643318e+03
7.750000000000000000e+02	3.220686372989079246e+03
7.760000000000000000e+02	3.158596735304826780e+03
7.770000000000000000e+02	3.097195853787689884e+03
7.780000000000000000e+02	3.036490291428307955e+03
7.790000000000000000e+02	2.976486144232984770e+03
7.800000000000000000e+02	2.917189046415043322e+03
7.810000000000000000e+02	2.858604175859079078e+03
7.820000000000000000e+02	2.800736259847382371e+03
7.830000000000000000e+02	2.743589581037753305e+03
7.840000000000000000e+02	2.687167983681812984e+03
7.850000000000000000e+02	2.631474880072892574e+03
7.860000000000000000e+02	2.576513257212538520e+03
7.870000000000000000e+02	2.522285683684639025e+03
7.880000000000000000e+02	2.468794316726174657e+03
7.890000000000000000e+02	2.416040909483600444e+03
7.900000000000000000e+02	2.364026818443882348e+03
7.910000000000000000e+02	2.312753011029255049e+03
7.920000000000000000e+02	2.262220073344802586e+03
7.930000000000000000e+02	2.212428218068022034e+03
7.940000000000000000e+02	2.163377292469627719e+03
7.950000000000000000e+02	2.115066786554896680e+03
7.960000000000000000e+02	2.067495841315004327e+03
7.970000000000000000e+02	2.020663257077849039e+03
7.980000000000000000e+02	1.974567501948047948e+03
7.990000000000000000e+02	1.929206720325862079e+03
8.000000000000000000e+02	1.884578741494984342e+03
8.010000000000000000e+02	1.840681088269257316e+03
8.020000000000000000e+02	1.797510985688560140e+03
8.030000000000000000e+02	1.755065369754263429e+03
8.040000000000000000e+02	1.713340896194831203e+03
8.050000000000000000e+02	1.672333949252341881e+03
8.060000000000000000e+02	1.632040650480881141e+03
8.070000000000000000e+02	1.592456867547974980e+03
8.080000000000000000e+02	1.553578223030425534e+03
8.090000000000000000e+02	1.515400103196132477e+03
8.100000000000000000e+02	1.477917666763701163e+03
8.110000000000000000e+02	1.441125853631868040e+03
8.120000000000000000e+02	1.405019393570988086e+03
8.130000000000000000e+02	1.369592814869085259e+03
8.140000000000000000e+02	1.334840452925184081e+03
8.150000000000000000e+02	1.300756458782896971e+03
8.160000000000000000e+02	1.267334807597477038e+03
8.170000000000000000e+02	1.234569307029796164e+03
8.180000000000000000e+02	1.202453605560959659e+03
8.190000000000000000e+02	1.170981200721519372e+03
8.200000000000000000e+02	1.140145447229490856e+03
8.210000000000000000e+02	1.109939565031651682e+03
8.220000000000000000e+02	1.080356647242829922e+03
8.230000000000000000e+02	1.051389667978169427e+03
8.240000000000000000e+02	1.023031490073586610e+03
8.250000000000000000e+02	9.952748726899143321e+02
8.260000000000000000e+02	9.681124787964564575e+02
8.270000000000000000e+02	9.415368825299456148e+02
8.280000000000000000e+02	9.155405764251405571e+02
8.290000000000000000e+02	8.901159785135348557e+02
8.300000000000000000e+02	8.652554392869233197e+02
8.310000000000000000e+02	8.409512485227865000e+02
8.320000000000000000e+02	8.171956419687047628e+02
8.330000000000000000e+02	7.939808078832611500e+02
8.340000000000000000e+02	7.712988934311071034e+02
8.350000000000000000e+02	7.491420109301083130e+02
8.360000000000000000e+02	7.275022439487128167e+02
8.370000000000000000e+02	7.063716532519023303e+02
8.380000000000000000e+02	6.857422825943060616e+02
8.390000000000000000e+02	6.656061643592777273e+02
8.400000000000000000e+02	6.459553250429333957e+02
8.410000000000000000e+02	6.267817905823632145e+02
8.420000000000000000e+02	6.080775915274240333e+02
8.430000000000000000e+02	5.898347680557128569e+02
8.440000000000000000e+02	5.720453748305199042e+02
8.450000000000000000e+02	5.547014857017255736e+02
8.460000000000000000e+02	5.377951982498074130e+02
8.470000000000000000e+02	5.213186381732725749e+02
8.480000000000000000e+02	5.052639635200210932e+02
8.490000000000000000e+02	4.896233687632819738e+02
8.500000000000000000e+02	4.743890887229468944e+02
8.510000000000000000e+02	4.595534023332505171e+02
8.520000000000000000e+02	4.451086362579124511e+02
8.530000000000000000e+02	4.310471683539752235e+02
8.540000000000000000e+02	4.173614309857197782e+02
8.550000000000000000e+02	4.040439141901583753e+02
8.560000000000000000e+02	3.910871686957243014e+02
8.570000000000000000e+02	3.784838087959013251e+02
8.580000000000000000e+02	3.662265150796299054e+02
8.590000000000000000e+02	3.543080370204459086e+02
8.600000000000000000e+02	3.427211954263918869e+02
8.610000000000000000e+02	3.314588847528395945e+02
8.620000000000000000e+02	3.205140752804445583e+02
8.630000000000000000e+02	3.098798151605352587e+02
8.640000000000000000e+02	2.995492323303105877e+02
8.650000000000000000e+02	2.895155363002941726e+02
8.660000000000000000e+02	2.797720198165495731e+02
8.670000000000000000e+02	2.703120604002252207e+02
8.680000000000000000e+02	2.611291217670461720e+02
8.690000000000000000e+02	2.522167551294195391e+02
8.700000000000000000e+02	2.435686003838642080e+02
8.710000000000000000e+02	2.351783871865083881e+02
8.720000000000000000e+02	2.270399359194373403e+02
8.730000000000000000e+02	2.191471585506962754e+02
8.740000000000000000e+02	2.114940593907825814e+02
8.750000000000000000e+02	2.040747357484738131e+02
8.760000000000000000e+02	1.968833784888601599e+02
8.770000000000000000e+02	1.899142724964531510e+02
8.780000000000000000e+02	1.831617970462555149e+02
8.790000000000000000e+02	1.766204260856743247e+02
8.800000000000000000e+02	1.702847284301620618e+02
8.810000000000000000e+02	1.641493678754619623e+02
8.820000000000000000e+02	1.582091032293301112e+02
8.830000000000000000e+02	1.524587882655880549e+02
8.840000000000000000e+02	1.468933716033513974e+02
8.850000000000000000e+02	1.415078965142589027e+02
8.860000000000000000e+02	1.362975006605014414e+02
8.870000000000000000e+02	1.312574157664354004e+02
8.880000000000000000e+02	1.263829672265269863e+02
8.890000000000000000e+02	1.216695736523541740e+02
8.900000000000000000e+02	1.171127463613557893e+02
8.910000000000000000e+02	1.127080888099849147e+02
8.920000000000000000e+02	1.084512959738866584e+02
8.930000000000000000e+02	1.043381536776848719e+02
8.940000000000000000e+02	1.003645378769167849e+02
8.950000000000000000e+02	9.652641389461960841e+01
8.960000000000000000e+02	9.281983561502350710e+01
8.970000000000000000e+02	8.924094463676391342e+01
8.980000000000000000e+02	8.578596938797755911e+01
8.990000000000000000e+02	8.245122420560197440e+01
9.000000000000000000e+02	7.923310838114471721e+01
9.010000000000000000e+02	7.612810517514309083e+01
9.020000000000000000e+02	7.313278080248154822e+01
9.030000000000000000e+02	7.024378339068400123e+01
9.040000000000000000e+02	6.745784191324456458e+01
9.050000000000000000e+02	6.477176510000778364e+01
9.060000000000000000e+02	6.218244032655697850e+01
9.070000000000000000e+02	5.968683248451365131e+01
9.080000000000000000e+02	5.728198283459808948e+01
9.090000000000000000e+02	5.496500784424634389e+01
9.100000000000000000e+02	5.273309801152483089e+01
9.110000000000000000e+02	5.058351667702781640e+01
9.120000000000000000e+02	4.851359882539045287e+01
9.130000000000000000e+02	4.652074987799382200e+01
9.140000000000000000e+02	4.460244447838557846e+01
9.150000000000000000e+02	4.275622527188451016e+01
9.160000000000000000e+02	4.097970168078516195e+01
9.170000000000000000e+02	3.927054867652321235e+01
9.180000000000000000e+02	3.762650555011234843e+01
9.190000000000000000e+02	3.604537468210807560e+01
9.200000000000000000e+02	3.452502031330427457e+01
9.210000000000000000e+02	3.306336731731594369e+01
9.220000000000000000e+02	3.165839997615166368e+01
9.230000000000000000e+02	3.030816075982933810e+01
9.240000000000000000e+02	2.901074911103963672e+01
9.250000000000000000e+02	2.776432023581295283e+01
9.260000000000000000e+02	2.656708390109943707e+01
9.270000000000000000e+02	2.541730324012340603e+01
9.280000000000000000e+02	2.431329356632937788e+01
9.290000000000000000e+02	2.325342119669033991e+01
9.300000000000000000e+02	2.223610228510739262e+01
9.310000000000000000e+02	2.125980166658434811e+01
9.320000000000000000e+02	2.032303171282152121e+01
9.330000000000000000e+02	1.942435119982962277e+01
9.340000000000000000e+02	1.856236418812708067e+01
9.350000000000000000e+02	1.773571891604351691e+01
9.360000000000000000e+02	1.694310670661485574e+01
9.370000000000000000e+02	1.618326088851953415e+01
9.380000000000000000e+02	1.545495573146802393e+01
9.390000000000000000e+02	1.475700539642484266e+01
9.400000000000000000e+02	1.408826290100726375e+01
9.410000000000000000e+02	1.344761910037357033e+01
9.420000000000000000e+02	1.283400168388136642e+01
9.430000000000000000e+02	1.224637418776651998e+01
9.440000000000000000e+02	1.168373502406379671e+01
9.450000000000000000e+02	1.114511652596210034e+01
9.460000000000000000e+02	1.062958400975971784e+01
9.470000000000000000e+02	1.013623485355913623e+01
9.480000000000000000e+02	9.664197592815293447e+00
9.490000000000000000e+02	9.212631032827598432e+00
9.500000000000000000e+02	8.780723378242255350e+00
9.510000000000000000e+02	8.367691379609622615e+00
9.520000000000000000e+02	7.972779497020103356e+00
9.530000000000000000e+02	7.595259080821584519e+00
9.540000000000000000e+02	7.234427569402538616e+00
9.550000000000000000e+02	6.889607704005960898e+00
9.560000000000000000e+02	6.560146760522562737e+00
9.570000000000000000e+02	6.245415798194437151e+00
9.580000000000000000e+02	5.944808925145108169e+00
9.590000000000000000e+02	5.657742580636780261e+00
9.600000000000000000e+02	5.383654833941974083e+00
9.610000000000000000e+02	5.122004699703034625e+00
9.620000000000000000e+02	4.872271469641125563e+00
9.630000000000000000e+02	4.633954060464278157e+00
9.640000000000000000e+02	4.406570377813540773e+00
9.650000000000000000e+02	4.189656696075977571e+00
9.660000000000000000e+02	3.982767053883799147e+00
9.670000000000000000e+02	3.785472665110425350e+00
9.680000000000000000e+02	3.597361345165942303e+00
9.690000000000000000e+02	3.418036952387264016e+00
9.700000000000000000e+02	3.247118844311330577e+00
9.710000000000000000e+02	3.084241348613674383e+00
9.720000000000000000e+02	2.929053248489021044e+00
9.730000000000000000e+02	2.781217282245540989e+00
9.740000000000000000e+02	2.640409656879992628e+00
9.750000000000000000e+02	2.506319575396951826e+00
9.760000000000000000e+02	2.378648777631946931e+00
9.770000000000000000e+02	2.257111094335275681e+00
9.780000000000000000e+02	2.141432014270795214e+00
9.790000000000000000e+02	2.031348264081987320e+00
9.800000000000000000e+02	1.926607400675854231e+00
9.810000000000000000e+02	1.826967415873939959e+00
9.820000000000000000e+02	1.732196353079087148e+00
9.830000000000000000e+02	1.642071935705808006e+00
9.840000000000000000e+02	1.556381207122239818e+00
9.850000000000000000e+02	1.474920181851619105e+00
9.860000000000000000e+02	1.397493507781877087e+00
9.870000000000000000e+02	1.323914139132690737e+00
9.880000000000000000e+02	1.254003019930356233e+00
9.890000000000000000e+02	1.187588777742241142e+00
9.900000000000000000e+02	1.124507427424140893e+00
9.910000000000000000e+02	1.064602084635662749e+00
9.920000000000000000e+02	1.007722688880811734e+00
9.930000000000000000e+02	9.537257358331603374e-01
9.940000000000000000e+02	9.024740187074318243e-01
9.950000000000000000e+02	8.538363784419208402e-01
9.960000000000000000e+02	8.076874624589056584e-01
9.970000000000000000e+02	7.639074917731543124e-01
9.980000000000000000e+02	7.223820362216533120e-01
9.990000000000000000e+02	6.830017975908492245e-01
1.000000000000000000e+03	6.456624004210018697e-01
