4.410000000000000000e+02	8.911240510668650673e-18
4.420000000000000000e+02	3.678033893151468547e-17
4.430000000000000000e+02	1.488127379955529508e-16
4.440000000000000000e+02	5.902164455553366826e-16
4.450000000000000000e+02	2.294718009112057283e-15
4.460000000000000000e+02	8.745691633493988038e-15
4.470000000000000000e+02	3.267426412644303427e-14
4.480000000000000000e+02	1.196642130444394601e-13
4.490000000000000000e+02	4.296052513758813687e-13
4.500000000000000000e+02	1.511895214608407159e-12
4.510000000000000000e+02	5.215796302007970369e-12
4.520000000000000000e+02	1.763869174061976785e-11
4.530000000000000000e+02	5.847347948107779261e-11
4.540000000000000000e+02	1.900195665441621118e-10
4.550000000000000000e+02	6.053193086791081206e-10
4.560000000000000000e+02	1.890242616746016192e-09
4.570000000000000000e+02	5.786252641344606202e-09
4.580000000000000000e+02	1.736297149870922159e-08
4.590000000000000000e+02	5.107372471524172380e-08
4.600000000000000000e+02	1.472712011536035324e-07
4.610000000000000000e+02	4.162794242953265017e-07
4.620000000000000000e+02	1.153450283819345574e-06
4.630000000000000000e+02	3.132994510041370042e-06
4.640000000000000000e+02	8.341942772337960490e-06
4.650000000000000000e+02	2.177316667387084800e-05
4.660000000000000000e+02	5.570867212746520504e-05
4.670000000000000000e+02	1.397239436816326372e-04
4.680000000000000000e+02	3.435308009550038042e-04
4.690000000000000000e+02	8.279561712975370535e-04
4.700000000000000000e+02	1.956121524101177723e-03
4.710000000000000000e+02	4.530343525204662790e-03
4.720000000000000000e+02	1.028521220200091443e-02
4.730000000000000000e+02	2.288981046779507700e-02
4.740000000000000000e+02	4.993648341486398023e-02
4.750000000000000000e+02	1.067924458399260451e-01
4.760000000000000000e+02	2.238772323747398318e-01
4.770000000000000000e+02	4.600723617056280412e-01
4.780000000000000000e+02	9.268067281931736678e-01
4.790000000000000000e+02	1.830202019175874995e+00
4.800000000000000000e+02	3.542873949828056812e+00
4.810000000000000000e+02	6.722939307870406722e+00
4.820000000000000000e+02	1.250574298324955080e+01
4.830000000000000000e+02	2.280376862006181327e+01
4.840000000000000000e+02	4.076153884720581289e+01
4.850000000000000000e+02	7.142353407926059106e+01
4.860000000000000000e+02	1.226814551016097141e+02
4.870000000000000000e+02	2.065681309430866008e+02
4.880000000000000000e+02	3.409530189139956633e+02
4.890000000000000000e+02	5.516613769164193855e+02
4.900000000000000000e+02	8.749786107077212591e+02
4.910000000000000000e+02	1.360407798376223354e+03
4.920000000000000000e+02	2.073421548326011361e+03
4.930000000000000000e+02	3.097796761072617755e+03
4.940000000000000000e+02	4.536961089945549247e+03
4.950000000000000000e+02	6.513643931346756290e+03
4.960000000000000000e+02	9.167055122033409134e+03
4.970000000000000000e+02	1.264686240800452651e+04
4.980000000000000000e+02	1.710346841683863022e+04
4.990000000000000000e+02	2.267462800433973825e+04
5.000000000000000000e+02	2.946971581116256493e+04
5.010000000000000000e+02	3.755630888025876629e+04
5.020000000000000000e+02	4.696259024806523666e+04
5.030000000000000000e+02	5.772864736872962385e+04
5.040000000000000000e+02	7.006945937929308275e+04
5.050000000000000000e+02	8.472306817361206049e+04
5.060000000000000000e+02	1.034664902671314194e+05
5.070000000000000000e+02	1.294935628087221703e+05
5.080000000000000000e+02	1.669406868730211863e+05
5.090000000000000000e+02	2.187895542607032112e+05
5.100000000000000000e+02	2.833291586454466451e+05
5.110000000000000000e+02	3.512261558515381766e+05
5.120000000000000000e+02	4.063777751742281253e+05
5.130000000000000000e+02	4.319942436315221130e+05
5.140000000000000000e+02	4.190963028419202892e+05
5.150000000000000000e+02	3.716129885035314946e+05
5.160000000000000000e+02	3.041769314200353110e+05
5.170000000000000000e+02	2.343243130651633546e+05
5.180000000000000000e+02	1.747748318532492849e+05
5.190000000000000000e+02	1.303130768277242605e+05
5.200000000000000000e+02	9.948119215923101001e+04
5.210000000000000000e+02	7.822362492331114481e+04
5.220000000000000000e+02	6.272521576493008615e+04
5.230000000000000000e+02	5.051863907465874217e+04
5.240000000000000000e+02	4.037467002482545649e+04
5.250000000000000000e+02	3.179572770133168524e+04
5.260000000000000000e+02	2.459277260776966796e+04
5.270000000000000000e+02	1.865788893379343062e+04
5.280000000000000000e+02	1.387846481703860263e+04
5.290000000000000000e+02	1.012014493021009366e+04
5.300000000000000000e+02	7.234079275530922132e+03
5.310000000000000000e+02	5.069060783342597460e+03
5.320000000000000000e+02	3.481919377378014815e+03
5.330000000000000000e+02	2.344535251044480901e+03
5.340000000000000000e+02	1.547539151492979499e+03
5.350000000000000000e+02	1.001321041618818526e+03
5.360000000000000000e+02	6.351142521033856383e+02
5.370000000000000000e+02	3.948909612904683968e+02
5.380000000000000000e+02	2.406851782546150673e+02
5.390000000000000000e+02	1.438031232804098067e+02
5.400000000000000000e+02	8.422365986133088711e+01
5.410000000000000000e+02	4.835559357684029180e+01
5.420000000000000000e+02	2.721486264593968585e+01
5.430000000000000000e+02	1.501455252169704835e+01
5.440000000000000000e+02	8.120176306694895985e+00
5.450000000000000000e+02	4.304922553880866865e+00
5.460000000000000000e+02	2.237237269643304050e+00
5.470000000000000000e+02	1.139739413359236675e+00
5.480000000000000000e+02	5.691751188414592155e-01
5.490000000000000000e+02	2.786333301658020511e-01
5.500000000000000000e+02	1.337109710863635670e-01
5.510000000000000000e+02	6.289959352477830778e-02
5.520000000000000000e+02	2.900517256224829227e-02
5.530000000000000000e+02	1.311142475455319423e-02
5.540000000000000000e+02	5.809933197515519329e-03
5.550000000000000000e+02	2.523708611105090083e-03
5.560000000000000000e+02	1.074617970560534435e-03
5.570000000000000000e+02	4.485551082355552339e-04
5.580000000000000000e+02	1.835372978742574879e-04
5.590000000000000000e+02	7.361726502711171704e-05
5.600000000000000000e+02	2.894555244669844556e-05
5.610000000000000000e+02	1.115657335893826535e-05
5.620000000000000000e+02	4.215281929660391031e-06
5.630000000000000000e+02	1.561238479519907457e-06
5.640000000000000000e+02	5.668376453906414235e-07
5.650000000000000000e+02	2.017413592620837845e-07
5.660000000000000000e+02	7.038466024782390917e-08
5.670000000000000000e+02	2.407176379350659868e-08
5.680000000000000000e+02	8.070206108096364414e-09
5.690000000000000000e+02	2.652211528053426757e-09
5.700000000000000000e+02	8.544339751528842160e-10
5.710000000000000000e+02	2.698333829951341957e-10
5.720000000000000000e+02	8.353330530819456787e-11
5.730000000000000000e+02	2.534956275959258380e-11
5.740000000000000000e+02	7.540985367621311360e-12
5.750000000000000000e+02	2.199037027102039801e-12
5.760000000000000000e+02	6.286136461707647295e-13
5.770000000000000000e+02	1.761496910699419457e-13
5.780000000000000000e+02	4.838678710143749748e-14
5.790000000000000000e+02	1.302922261269291895e-14
5.800000000000000000e+02	3.439196907448551398e-15
5.810000000000000000e+02	8.899024398768910367e-16
5.820000000000000000e+02	2.257223546725202884e-16
5.830000000000000000e+02	5.612463960764467371e-17
5.840000000000000000e+02	1.367978831966127759e-17
5.850000000000000000e+02	3.268526479895482073e-18
5.860000000000000000e+02	7.655462914364216023e-19
5.870000000000000000e+02	1.757671556622795938e-19
5.880000000000000000e+02	3.955950160014974953e-20
5.890000000000000000e+02	8.727919191038522845e-21
5.900000000000000000e+02	1.887632475458133356e-21
5.910000000000000000e+02	4.001943777429906922e-22
5.920000000000000000e+02	8.317088911689320149e-23
5.930000000000000000e+02	1.694410071058923143e-23
5.940000000000000000e+02	3.383861058756863252e-24
5.950000000000000000e+02	6.624503590283619134e-25
5.960000000000000000e+02	1.271279300427108823e-25
5.970000000000000000e+02	2.391527780950601399e-26
5.980000000000000000e+02	4.410183939529491876e-27
5.990000000000000000e+02	7.972321335104252233e-28
6.000000000000000000e+02	1.412731750073269092e-28
6.010000000000000000e+02	2.454038856221471487e-29
6.020000000000000000e+02	4.178784572844528895e-30
6.030000000000000000e+02	6.975339484025121245e-31
6.040000000000000000e+02	1.141372841236158969e-31
6.050000000000000000e+02	1.830781596778862470e-32
6.060000000000000000e+02	2.878673174054709352e-33
6.070000000000000000e+02	4.437056938570365358e-34
6.080000000000000000e+02	6.704161406805299896e-35
6.090000000000000000e+02	9.929805460999527287e-36
6.100000000000000000e+02	1.441729673935796304e-36
6.110000000000000000e+02	2.051982974533537060e-37
6.120000000000000000e+02	2.862928405375283631e-38
6.130000000000000000e+02	3.915561419299142621e-39
6.140000000000000000e+02	5.249578235396838378e-40
6.150000000000000000e+02	6.899245562718373889e-41
6.160000000000000000e+02	8.888441369716489819e-42
6.170000000000000000e+02	1.122526079858278378e-42
6.180000000000000000e+02	1.389677692922737593e-43
6.190000000000000000e+02	1.686469733257938561e-44
6.200000000000000000e+02	2.006272106677136480e-45
6.210000000000000000e+02	2.339634073396485379e-46
6.220000000000000000e+02	2.674563162860085444e-47
6.230000000000000000e+02	2.997123220830009474e-48
6.240000000000000000e+02	3.292328465321538428e-49
6.250000000000000000e+02	3.545263618774522994e-50
6.260000000000000000e+02	3.742318355440794238e-51
6.270000000000000000e+02	3.872395833469762223e-52
6.280000000000000000e+02	3.927946620637730004e-53
6.290000000000000000e+02	3.905694129927342835e-54
6.300000000000000000e+02	3.806954615400223018e-55
6.310000000000000000e+02	3.637508262443761895e-56
6.320000000000000000e+02	3.407038931701189552e-57
6.330000000000000000e+02	3.128218086076968070e-58
6.340000000000000000e+02	2.815553393867899903e-59
6.350000000000000000e+02	2.484147226799161791e-60
6.360000000000000000e+02	2.148511654246272285e-61
6.370000000000000000e+02	1.821566014145974029e-62
6.380000000000000000e+02	1.513906084871920786e-63
6.390000000000000000e+02	1.233388153927131394e-64
6.400000000000000000e+02	9.850254012542566572e-66
6.410000000000000000e+02	7.711554028509040064e-67
6.420000000000000000e+02	5.918112274447143211e-68
6.430000000000000000e+02	4.452165634499293659e-69
6.440000000000000000e+02	3.283267326249254171e-70
6.450000000000000000e+02	2.373493218134354342e-71
6.460000000000000000e+02	1.681963488918459321e-72
6.470000000000000000e+02	1.168401085652017534e-73
6.480000000000000000e+02	7.956355105671401220e-75
6.490000000000000000e+02	5.311084158153310639e-76
6.500000000000000000e+02	3.475353827180190502e-77
6.510000000000000000e+02	2.229264957203121331e-78
6.520000000000000000e+02	1.401751954162399161e-79
6.530000000000000000e+02	8.640273101835521856e-81
6.540000000000000000e+02	5.220722243749481840e-82
6.550000000000000000e+02	3.092292201582405115e-83
6.560000000000000000e+02	1.795466394287210854e-84
6.570000000000000000e+02	1.021929309587880540e-85
6.580000000000000000e+02	5.701790396343261361e-87
6.590000000000000000e+02	3.118519469678862899e-88
6.600000000000000000e+02	1.671985435837832608e-89
6.610000000000000000e+02	8.787459553508910288e-91
6.620000000000000000e+02	4.527318064567658262e-92
6.630000000000000000e+02	2.286469923630066248e-93
6.640000000000000000e+02	1.131974902367432578e-94
6.650000000000000000e+02	5.493573274476293841e-96
6.660000000000000000e+02	2.613484109789569083e-97
6.670000000000000000e+02	1.218797696783691111e-98
6.680000000000000000e+02	5.571731817148787589e-100
6.690000000000000000e+02	2.496868110927581649e-101
6.700000000000000000e+02	1.096851465093414627e-102
6.710000000000000000e+02	4.723314406736654711e-104
6.720000000000000000e+02	1.993851041730090157e-105
6.730000000000000000e+02	8.250597150997752071e-107
6.740000000000000000e+02	3.346762345505379350e-108
6.750000000000000000e+02	1.330795073096397738e-109
6.760000000000000000e+02	5.187335208659924322e-111
6.770000000000000000e+02	1.982094063781553514e-112
6.780000000000000000e+02	7.424223322607364100e-114
6.790000000000000000e+02	2.725992219948433347e-115
6.800000000000000000e+02	9.811717051011156152e-117
6.810000000000000000e+02	3.461881818120268507e-118
6.820000000000000000e+02	1.197364226742393384e-119
6.830000000000000000e+02	4.059636403918440483e-121
6.840000000000000000e+02	1.349257424523551158e-122
6.850000000000000000e+02	4.395915274919173138e-124
6.860000000000000000e+02	1.403946727792887554e-125
6.870000000000000000e+02	4.395403636885519340e-127
6.880000000000000000e+02	1.348943364220244189e-128
6.890000000000000000e+02	4.058219072701227586e-130
6.900000000000000000e+02	1.196806881938766400e-131
6.910000000000000000e+02	3.459867654926364823e-133
6.920000000000000000e+02	9.804867164014375142e-135
6.930000000000000000e+02	2.723772058684573696e-136
6.940000000000000000e+02	7.417313329539074274e-138
6.950000000000000000e+02	1.980018777109512846e-139
6.960000000000000000e+02	5.181300860420866618e-141
6.970000000000000000e+02	1.329092269119807915e-142
6.980000000000000000e+02	3.342091003798791406e-144
6.990000000000000000e+02	8.238122196144766988e-146
7.000000000000000000e+02	1.990604614110693165e-147
7.010000000000000000e+02	4.715074964268132030e-149
7.020000000000000000e+02	1.094810656632625702e-150
7.030000000000000000e+02	2.491932354714512580e-152
7.040000000000000000e+02	5.560070526504437883e-154
7.050000000000000000e+02	1.216105270199570640e-155
7.060000000000000000e+02	2.607407193720025039e-157
7.070000000000000000e+02	5.480161620812281139e-159
7.080000000000000000e+02	1.129079943964685736e-160
7.090000000000000000e+02	2.280356972639209257e-162
7.100000000000000000e+02	4.514688610732346173e-164
7.110000000000000000e+02	8.761926050201330356e-166
7.120000000000000000e+02	1.666933153251487317e-167
7.130000000000000000e+02	3.108734291065186220e-169
7.140000000000000000e+02	5.683237977034202481e-171
7.150000000000000000e+02	1.018485613130742027e-172
7.160000000000000000e+02	1.789207764170030871e-174
7.170000000000000000e+02	3.081154445336195646e-176
7.180000000000000000e+02	5.201312902453362054e-178
7.190000000000000000e+02	8.607148826888229303e-180
7.200000000000000000e+02	1.396215524336064178e-181
7.210000000000000000e+02	2.220201702443792230e-183
7.220000000000000000e+02	3.460821648665627323e-185
7.230000000000000000e+02	5.288260311196746403e-187
7.240000000000000000e+02	7.921241418364682249e-189
7.250000000000000000e+02	1.163109205679749459e-190
7.260000000000000000e+02	1.674150724553878133e-192
7.270000000000000000e+02	2.362193313788712579e-194
7.280000000000000000e+02	3.267255782891462501e-196
7.290000000000000000e+02	4.429938054861244417e-198
7.300000000000000000e+02	5.887880542443243973e-200
7.310000000000000000e+02	7.671267827191321999e-202
7.320000000000000000e+02	9.797654477154007633e-204
7.330000000000000000e+02	1.226659177220148856e-205
7.340000000000000000e+02	1.505471449473934665e-207
7.350000000000000000e+02	1.811206440412938974e-209
7.360000000000000000e+02	2.136044039952163597e-211
7.370000000000000000e+02	2.469444499667194184e-213
7.380000000000000000e+02	2.798563437983945741e-215
7.390000000000000000e+02	3.108979516304886452e-217
7.400000000000000000e+02	3.385691506640419229e-219
7.410000000000000000e+02	3.614296074878837256e-221
7.420000000000000000e+02	3.782220870812511547e-223
7.430000000000000000e+02	3.879867247672114549e-225
7.440000000000000000e+02	3.901518442722923582e-227
7.450000000000000000e+02	3.845893741279016357e-229
7.460000000000000000e+02	3.716273908545399771e-231
7.470000000000000000e+02	3.520180803358406165e-233
7.480000000000000000e+02	3.268654690378330136e-235
7.490000000000000000e+02	2.975225819822006056e-237
7.500000000000000000e+02	2.654713414180070394e-239
7.510000000000000000e+02	2.321999773165500622e-241
7.520000000000000000e+02	1.990918674883170093e-243
7.530000000000000000e+02	1.673368873280895945e-245
7.540000000000000000e+02	1.378721890091320460e-247
7.550000000000000000e+02	1.113546800199449199e-249
7.560000000000000000e+02	8.816314949417567733e-252
7.570000000000000000e+02	6.842464248871452735e-254
7.580000000000000000e+02	5.205767841841605631e-256
7.590000000000000000e+02	3.882432146209576029e-258
7.600000000000000000e+02	2.838374986419879107e-260
7.610000000000000000e+02	2.034147710424303536e-262
7.620000000000000000e+02	1.429032217839308676e-264
7.630000000000000000e+02	9.841207134649228880e-267
7.640000000000000000e+02	6.643570440325546431e-269
7.650000000000000000e+02	4.396443882370409059e-271
7.660000000000000000e+02	2.851992260821214673e-273
7.670000000000000000e+02	1.813601932833066834e-275
7.680000000000000000e+02	1.130530844834566000e-277
7.690000000000000000e+02	6.908276005065889456e-280
7.700000000000000000e+02	4.138126511013304467e-282
7.710000000000000000e+02	2.429879100984393651e-284
7.720000000000000000e+02	1.398660745853039807e-286
7.730000000000000000e+02	7.891997256686665783e-289
7.740000000000000000e+02	4.365241582352988540e-291
7.750000000000000000e+02	2.366881200260695989e-293
7.760000000000000000e+02	1.258031325619558341e-295
7.770000000000000000e+02	6.554706790595972081e-298
7.780000000000000000e+02	3.347818476568521702e-300
7.790000000000000000e+02	1.676167258730864144e-302
7.800000000000000000e+02	8.226585638526109144e-305
7.810000000000000000e+02	3.957935492073906492e-307
7.820000000000000000e+02	1.866657410852360210e-309
7.830000000000000000e+02	8.629931169555363180e-312
7.840000000000000000e+02	3.911102813653346912e-314
7.850000000000000000e+02	1.735081375140577460e-316
7.860000000000000000e+02	7.169781839319001600e-319
7.870000000000000000e+02	0.000000000000000000e+00
7.880000000000000000e+02	0.000000000000000000e+00
7.890000000000000000e+02	0.000000000000000000e+00
7.900000000000000000e+02	0.000000000000000000e+00
7.910000000000000000e+02	0.000000000000000000e+00
7.920000000000000000e+02	0.000000000000000000e+00
7.930000000000000000e+02	0.000000000000000000e+00
7.940000000000000000e+02	0.000000000000000000e+00
7.950000000000000000e+02	0.000000000000000000e+00
7.960000000000000000e+02	0.000000000000000000e+00
7.970000000000000000e+02	0.000000000000000000e+00
7.980000000000000000e+02	0.000000000000000000e+00
7.990000000000000000e+02	0.000000000000000000e+00
8.000000000000000000e+02	0.000000000000000000e+00
8.010000000000000000e+02	0.000000000000000000e+00
8.020000000000000000e+02	0.000000000000000000e+00
8.030000000000000000e+02	0.000000000000000000e+00
8.040000000000000000e+02	0.000000000000000000e+00
8.050000000000000000e+02	0.000000000000000000e+00
8.060000000000000000e+02	0.000000000000000000e+00
8.070000000000000000e+02	0.000000000000000000e+00
8.080000000000000000e+02	0.000000000000000000e+00
8.090000000000000000e+02	0.000000000000000000e+00
8.100000000000000000e+02	0.000000000000000000e+00
8.110000000000000000e+02	0.000000000000000000e+00
8.120000000000000000e+02	0.000000000000000000e+00
8.130000000000000000e+02	0.000000000000000000e+00
8.140000000000000000e+02	0.000000000000000000e+00
8.150000000000000000e+02	0.000000000000000000e+00
8.160000000000000000e+02	0.000000000000000000e+00
8.170000000000000000e+02	0.000000000000000000e+00
8.180000000000000000e+02	0.000000000000000000e+00
8.190000000000000000e+02	0.000000000000000000e+00
8.200000000000000000e+02	0.000000000000000000e+00
8.210000000000000000e+02	0.000000000000000000e+00
8.220000000000000000e+02	0.000000000000000000e+00
8.230000000000000000e+02	0.000000000000000000e+00
8.240000000000000000e+02	0.000000000000000000e+00
8.250000000000000000e+02	0.000000000000000000e+00
8.260000000000000000e+02	0.000000000000000000e+00
8.270000000000000000e+02	0.000000000000000000e+00
8.280000000000000000e+02	0.000000000000000000e+00
8.290000000000000000e+02	0.000000000000000000e+00
8.300000000000000000e+02	0.000000000000000000e+00
8.310000000000000000e+02	0.000000000000000000e+00
8.320000000000000000e+02	0.000000000000000000e+00
8.330000000000000000e+02	0.000000000000000000e+00
8.340000000000000000e+02	0.000000000000000000e+00
8.350000000000000000e+02	0.000000000000000000e+00
8.360000000000000000e+02	0.000000000000000000e+00
8.370000000000000000e+02	0.000000000000000000e+00
8.380000000000000000e+02	0.000000000000000000e+00
8.390000000000000000e+02	0.000000000000000000e+00
8.400000000000000000e+02	0.000000000000000000e+00
8.410000000000000000e+02	0.000000000000000000e+00
8.420000000000000000e+02	0.000000000000000000e+00
8.430000000000000000e+02	0.000000000000000000e+00
8.440000000000000000e+02	0.000000000000000000e+00
8.450000000000000000e+02	0.000000000000000000e+00
8.460000000000000000e+02	0.000000000000000000e+00
8.470000000000000000e+02	0.000000000000000000e+00
8.480000000000000000e+02	0.000000000000000000e+00
8.490000000000000000e+02	0.000000000000000000e+00
8.500000000000000000e+02	0.000000000000000000e+00
8.510000000000000000e+02	0.000000000000000000e+00
8.520000000000000000e+02	0.000000000000000000e+00
8.530000000000000000e+02	0.000000000000000000e+00
8.540000000000000000e+02	0.000000000000000000e+00
8.550000000000000000e+02	0.000000000000000000e+00
8.560000000000000000e+02	0.000000000000000000e+00
8.570000000000000000e+02	0.000000000000000000e+00
8.580000000000000000e+02	0.000000000000000000e+00
8.590000000000000000e+02	0.000000000000000000e+00
8.600000000000000000e+02	0.000000000000000000e+00
8.610000000000000000e+02	0.000000000000000000e+00
8.620000000000000000e+02	0.000000000000000000e+00
8.630000000000000000e+02	0.000000000000000000e+00
8.640000000000000000e+02	0.000000000000000000e+00
8.650000000000000000e+02	0.000000000000000000e+00
8.660000000000000000e+02	0.000000000000000000e+00
8.670000000000000000e+02	0.000000000000000000e+00
8.680000000000000000e+02	0.000000000000000000e+00
8.690000000000000000e+02	0.000000000000000000e+00
8.700000000000000000e+02	0.000000000000000000e+00
8.710000000000000000e+02	0.000000000000000000e+00
8.720000000000000000e+02	0.000000000000000000e+00
8.730000000000000000e+02	0.000000000000000000e+00
8.740000000000000000e+02	0.000000000000000000e+00
8.750000000000000000e+02	0.000000000000000000e+00
8.760000000000000000e+02	0.000000000000000000e+00
8.770000000000000000e+02	0.000000000000000000e+00
8.780000000000000000e+02	0.000000000000000000e+00
8.790000000000000000e+02	0.000000000000000000e+00
8.800000000000000000e+02	0.000000000000000000e+00
8.810000000000000000e+02	0.000000000000000000e+00
8.820000000000000000e+02	0.000000000000000000e+00
8.830000000000000000e+02	0.000000000000000000e+00
8.840000000000000000e+02	0.000000000000000000e+00
8.850000000000000000e+02	0.000000000000000000e+00
8.860000000000000000e+02	0.000000000000000000e+00
8.870000000000000000e+02	0.000000000000000000e+00
8.880000000000000000e+02	0.000000000000000000e+00
8.890000000000000000e+02	0.000000000000000000e+00
8.900000000000000000e+02	0.000000000000000000e+00
8.910000000000000000e+02	0.000000000000000000e+00
8.920000000000000000e+02	0.000000000000000000e+00
8.930000000000000000e+02	0.000000000000000000e+00
8.940000000000000000e+02	0.000000000000000000e+00
8.950000000000000000e+02	0.000000000000000000e+00
8.960000000000000000e+02	0.000000000000000000e+00
8.970000000000000000e+02	0.000000000000000000e+00
8.980000000000000000e+02	0.000000000000000000e+00
8.990000000000000000e+02	0.000000000000000000e+00
9.000000000000000000e+02	0.000000000000000000e+00
9.010000000000000000e+02	0.000000000000000000e+00
9.020000000000000000e+02	0.000000000000000000e+00
9.030000000000000000e+02	0.000000000000000000e+00
9.040000000000000000e+02	0.000000000000000000e+00
9.050000000000000000e+02	0.000000000000000000e+00
9.060000000000000000e+02	0.000000000000000000e+00
9.070000000000000000e+02	0.000000000000000000e+00
9.080000000000000000e+02	0.000000000000000000e+00
9.090000000000000000e+02	0.000000000000000000e+00
9.100000000000000000e+02	0.000000000000000000e+00
9.110000000000000000e+02	0.000000000000000000e+00
9.120000000000000000e+02	0.000000000000000000e+00
9.130000000000000000e+02	0.000000000000000000e+00
9.140000000000000000e+02	0.000000000000000000e+00
9.150000000000000000e+02	0.000000000000000000e+00
9.160000000000000000e+02	0.000000000000000000e+00
9.170000000000000000e+02	0.000000000000000000e+00
9.180000000000000000e+02	0.000000000000000000e+00
9.190000000000000000e+02	0.000000000000000000e+00
9.200000000000000000e+02	0.000000000000000000e+00
9.210000000000000000e+02	0.000000000000000000e+00
9.220000000000000000e+02	0.000000000000000000e+00
9.230000000000000000e+02	0.000000000000000000e+00
9.240000000000000000e+02	0.000000000000000000e+00
9.250000000000000000e+02	0.000000000000000000e+00
9.260000000000000000e+02	0.000000000000000000e+00
9.270000000000000000e+02	0.000000000000000000e+00
9.280000000000000000e+02	0.000000000000000000e+00
9.290000000000000000e+02	0.000000000000000000e+00
9.300000000000000000e+02	0.000000000000000000e+00
9.310000000000000000e+02	0.000000000000000000e+00
9.320000000000000000e+02	0.000000000000000000e+00
9.330000000000000000e+02	0.000000000000000000e+00
9.340000000000000000e+02	0.000000000000000000e+00
9.350000000000000000e+02	0.000000000000000000e+00
9.360000000000000000e+02	0.000000000000000000e+00
9.370000000000000000e+02	0.000000000000000000e+00
9.380000000000000000e+02	0.000000000000000000e+00
9.390000000000000000e+02	0.000000000000000000e+00
9.400000000000000000e+02	0.000000000000000000e+00
9.410000000000000000e+02	0.000000000000000000e+00
9.420000000000000000e+02	0.000000000000000000e+00
9.430000000000000000e+02	0.000000000000000000e+00
9.440000000000000000e+02	0.000000000000000000e+00
9.450000000000000000e+02	0.000000000000000000e+00
9.460000000000000000e+02	0.000000000000000000e+00
9.470000000000000000e+02	0.000000000000000000e+00
9.480000000000000000e+02	0.000000000000000000e+00
9.490000000000000000e+02	0.000000000000000000e+00
9.500000000000000000e+02	0.000000000000000000e+00
9.510000000000000000e+02	0.000000000000000000e+00
9.520000000000000000e+02	0.000000000000000000e+00
9.530000000000000000e+02	0.000000000000000000e+00
9.540000000000000000e+02	0.000000000000000000e+00
9.550000000000000000e+02	0.000000000000000000e+00
9.560000000000000000e+02	0.000000000000000000e+00
9.570000000000000000e+02	0.000000000000000000e+00
9.580000000000000000e+02	0.000000000000000000e+00
9.590000000000000000e+02	0.000000000000000000e+00
9.600000000000000000e+02	0.000000000000000000e+00
9.610000000000000000e+02	0.000000000000000000e+00
9.620000000000000000e+02	0.000000000000000000e+00
9.630000000000000000e+02	0.000000000000000000e+00
9.640000000000000000e+02	0.000000000000000000e+00
9.650000000000000000e+02	0.000000000000000000e+00
9.660000000000000000e+02	0.000000000000000000e+00
9.670000000000000000e+02	0.000000000000000000e+00
9.680000000000000000e+02	0.000000000000000000e+00
9.690000000000000000e+02	0.000000000000000000e+00
9.700000000000000000e+02	0.000000000000000000e+00
9.710000000000000000e+02	0.000000000000000000e+00
9.720000000000000000e+02	0.000000000000000000e+00
9.730000000000000000e+02	0.000000000000000000e+00
9.740000000000000000e+02	0.000000000000000000e+00
9.750000000000000000e+02	0.000000000000000000e+00
9.760000000000000000e+02	0.000000000000000000e+00
9.770000000000000000e+02	0.000000000000000000e+00
9.780000000000000000e+02	0.000000000000000000e+00
9.790000000000000000e+02	0.000000000000000000e+00
9.800000000000000000e+02	0.000000000000000000e+00
9.810000000000000000e+02	0.000000000000000000e+00
9.820000000000000000e+02	0.000000000000000000e+00
9.830000000000000000e+02	0.000000000000000000e+00
9.840000000000000000e+02	0.000000000000000000e+00
9.850000000000000000e+02	0.000000000000000000e+00
9.860000000000000000e+02	0.000000000000000000e+00
9.870000000000000000e+02	0.000000000000000000e+00
9.880000000000000000e+02	0.000000000000000000e+00
9.890000000000000000e+02	0.000000000000000000e+00
9.900000000000000000e+02	0.000000000000000000e+00
9.910000000000000000e+02	0.000000000000000000e+00
9.920000000000000000e+02	0.000000000000000000e+00
9.930000000000000000e+02	0.000000000000000000e+00
9.940000000000000000e+02	0.000000000000000000e+00
9.950000000000000000e+02	0.000000000000000000e+00
9.960000000000000000e+02	0.000000000000000000e+00
9.970000000000000000e+02	0.000000000000000000e+00
9.980000000000000000e+02	0.000000000000000000e+00
9.990000000000000000e+02	0.000000000000000000e+00
1.000000000000000000e+03	0.000000000000000000e+00
