4.410000000000000000e+02	3.895283572381832187e+02
4.420000000000000000e+02	4.012260807313738269e+02
4.430000000000000000e+02	4.132163241329673724e+02
4.440000000000000000e+02	4.255043680956952699e+02
4.450000000000000000e+02	4.380955217611582952e+02
4.460000000000000000e+02	4.509951205425327316e+02
4.470000000000000000e+02	4.642085238225500348e+02
4.480000000000000000e+02	4.777411125662398490e+02
4.490000000000000000e+02	4.915982868479915169e+02
4.500000000000000000e+02	5.057854632925618716e+02
4.510000000000000000e+02	5.203080724297411734e+02
4.520000000000000000e+02	5.351715559624576599e+02
4.530000000000000000e+02	5.503813639481878681e+02
4.540000000000000000e+02	5.659429518936262866e+02
4.550000000000000000e+02	5.818617777626432144e+02
4.560000000000000000e+02	5.981432988976653178e+02
4.570000000000000000e+02	6.147929688546837497e+02
4.580000000000000000e+02	6.318162341522073575e+02
4.590000000000000000e+02	6.492185309345591122e+02
4.600000000000000000e+02	6.670052815500240513e+02
4.610000000000000000e+02	6.851818910444429775e+02
4.620000000000000000e+02	7.037537435709629108e+02
4.630000000000000000e+02	7.227261987167476036e+02
4.640000000000000000e+02	7.421045877475638690e+02
4.650000000000000000e+02	7.618942097712620125e+02
4.660000000000000000e+02	7.821003278212879195e+02
4.670000000000000000e+02	8.027281648614583673e+02
4.680000000000000000e+02	8.237828997133633493e+02
4.690000000000000000e+02	8.452696629078604929e+02
4.700000000000000000e+02	8.671935324622384087e+02
4.710000000000000000e+02	8.895595295847645048e+02
4.720000000000000000e+02	9.123726143084203386e+02
4.730000000000000000e+02	9.356376810557710542e+02
4.740000000000000000e+02	9.593595541370182218e+02
4.750000000000000000e+02	9.835429831834189827e+02
4.760000000000000000e+02	1.008192638518363538e+03
4.770000000000000000e+02	1.033313106468534670e+03
4.780000000000000000e+02	1.058908884617683498e+03
4.790000000000000000e+02	1.084984377005688657e+03
4.800000000000000000e+02	1.111543889275700394e+03
4.810000000000000000e+02	1.138591623772406138e+03
4.820000000000000000e+02	1.166131674595418417e+03
4.830000000000000000e+02	1.194168022617747965e+03
4.840000000000000000e+02	1.222704530516405839e+03
4.850000000000000000e+02	1.251744938080837528e+03
4.860000000000000000e+02	1.281292859263054879e+03
4.870000000000000000e+02	1.311351788522857532e+03
4.880000000000000000e+02	1.341925152677466031e+03
4.890000000000000000e+02	1.373016569115093262e+03
4.900000000000000000e+02	1.404630971465243420e+03
4.910000000000000000e+02	1.436779111411316990e+03
4.920000000000000000e+02	1.469494206694246941e+03
4.930000000000000000e+02	1.502888897883269919e+03
4.940000000000000000e+02	1.537335274277594181e+03
4.950000000000000000e+02	1.573989406427773929e+03
4.960000000000000000e+02	1.616196010764228049e+03
4.970000000000000000e+02	1.672932090383651030e+03
4.980000000000000000e+02	1.766493597728636132e+03
4.990000000000000000e+02	1.947994288024876369e+03
5.000000000000000000e+02	2.325251439256328467e+03
5.010000000000000000e+02	3.106627760316782769e+03
5.020000000000000000e+02	4.658804091073467134e+03
5.030000000000000000e+02	7.564006196053650456e+03
5.040000000000000000e+02	1.264382617569127615e+04
5.050000000000000000e+02	2.090010161658065772e+04
5.060000000000000000e+02	3.332358894452630193e+04
5.070000000000000000e+02	5.055526144729694352e+04
5.080000000000000000e+02	7.245758361056707508e+04
5.090000000000000000e+02	9.774160286157808150e+04
5.100000000000000000e+02	1.238492960921867634e+05
5.110000000000000000e+02	1.472536096826159919e+05
5.120000000000000000e+02	1.641924953761652578e+05
5.130000000000000000e+02	1.716482213617029483e+05
5.140000000000000000e+02	1.682265125026476453e+05
5.150000000000000000e+02	1.545845417045573704e+05
5.160000000000000000e+02	1.332276454884509731e+05
5.170000000000000000e+02	1.077609678095947893e+05
5.180000000000000000e+02	8.190253236491823918e+04
5.190000000000000000e+02	5.862642788073261909e+04
5.200000000000000000e+02	3.969447100758273154e+04
5.210000000000000000e+02	2.563351914559421493e+04
5.220000000000000000e+02	1.603811443097632036e+04
5.230000000000000000e+02	9.999859598854340220e+03
5.240000000000000000e+02	6.490670671019841393e+03
5.250000000000000000e+02	4.609655642210485894e+03
5.260000000000000000e+02	3.686081026077376464e+03
5.270000000000000000e+02	3.279762990815729609e+03
5.280000000000000000e+02	3.131261917054248443e+03
5.290000000000000000e+02	3.101739555866534374e+03
5.300000000000000000e+02	3.123257723320004516e+03
5.310000000000000000e+02	3.165269411832937294e+03
5.320000000000000000e+02	3.215108420136741643e+03
5.330000000000000000e+02	3.267916641726463695e+03
5.340000000000000000e+02	3.321964590680006040e+03
5.350000000000000000e+02	3.376677094735284300e+03
5.360000000000000000e+02	3.431872095558725505e+03
5.370000000000000000e+02	3.487491261999849485e+03
5.380000000000000000e+02	3.543512192623109968e+03
5.390000000000000000e+02	3.599921996668484553e+03
5.400000000000000000e+02	3.656709939810501965e+03
5.410000000000000000e+02	3.713865547603711093e+03
5.420000000000000000e+02	3.771378152255669193e+03
5.430000000000000000e+02	3.829236792769242584e+03
5.440000000000000000e+02	3.887430195415659000e+03
5.450000000000000000e+02	3.945946771309528685e+03
5.460000000000000000e+02	4.004774617529231364e+03
5.470000000000000000e+02	4.063901519088998612e+03
5.480000000000000000e+02	4.123314951267147990e+03
5.490000000000000000e+02	4.183002082206913656e+03
5.500000000000000000e+02	4.242949775777840841e+03
5.510000000000000000e+02	4.303144594697011598e+03
5.520000000000000000e+02	4.363572803910927178e+03
5.530000000000000000e+02	4.424220374238817385e+03
5.540000000000000000e+02	4.485072986277956261e+03
5.550000000000000000e+02	4.546116034571316959e+03
5.560000000000000000e+02	4.607334632037630399e+03
5.570000000000000000e+02	4.668713614663622138e+03
5.580000000000000000e+02	4.730237546458016368e+03
5.590000000000000000e+02	4.791890724666533970e+03
5.600000000000000000e+02	4.853657185246896915e+03
5.610000000000000000e+02	4.915520708602572086e+03
5.620000000000000000e+02	4.977464825573692906e+03
5.630000000000000000e+02	5.039472823683327078e+03
5.640000000000000000e+02	5.101527753636994930e+03
5.650000000000000000e+02	5.163612436073033678e+03
5.660000000000000000e+02	5.225709468561156427e+03
5.670000000000000000e+02	5.287801232846231869e+03
5.680000000000000000e+02	5.349869902334072322e+03
5.690000000000000000e+02	5.411897449815699474e+03
5.700000000000000000e+02	5.473865655426306148e+03
5.710000000000000000e+02	5.535756114834825894e+03
5.720000000000000000e+02	5.597550247659765773e+03
5.730000000000000000e+02	5.659229306106669355e+03
5.740000000000000000e+02	5.720774383822305026e+03
5.750000000000000000e+02	5.782166424960398217e+03
5.760000000000000000e+02	5.843386233453469686e+03
5.770000000000000000e+02	5.904414482485068220e+03
5.780000000000000000e+02	5.965231724156406926e+03
5.790000000000000000e+02	6.025818399341197619e+03
5.800000000000000000e+02	6.086154847722176783e+03
5.810000000000000000e+02	6.146221318002588305e+03
5.820000000000000000e+02	6.205997978285664431e+03
5.830000000000000000e+02	6.265464926614855358e+03
5.840000000000000000e+02	6.324602201667391455e+03
5.850000000000000000e+02	6.383389793593475588e+03
5.860000000000000000e+02	6.441807654993217511e+03
5.870000000000000000e+02	6.499835712023212182e+03
5.880000000000000000e+02	6.557453875624427383e+03
5.890000000000000000e+02	6.614642052862908713e+03
5.900000000000000000e+02	6.671380158374585335e+03
5.910000000000000000e+02	6.727648125905288907e+03
5.920000000000000000e+02	6.783425919936955324e+03
5.930000000000000000e+02	6.838693547390740605e+03
5.940000000000000000e+02	6.893431069397725878e+03
5.950000000000000000e+02	6.947618613127640856e+03
5.960000000000000000e+02	7.001236383665983340e+03
5.970000000000000000e+02	7.054264675929720397e+03
5.980000000000000000e+02	7.106683886611689559e+03
5.990000000000000000e+02	7.158474526143677394e+03
6.000000000000000000e+02	7.209617230668082811e+03
6.010000000000000000e+02	7.260092774007970547e+03
6.020000000000000000e+02	7.309882079625257575e+03
6.030000000000000000e+02	7.358966232556703289e+03
6.040000000000000000e+02	7.407326491317342516e+03
6.050000000000000000e+02	7.454944299760930335e+03
6.060000000000000000e+02	7.501801298886975928e+03
6.070000000000000000e+02	7.547879338583889876e+03
6.080000000000000000e+02	7.593160489297801178e+03
6.090000000000000000e+02	7.637627053616573903e+03
6.100000000000000000e+02	7.681261577758608837e+03
6.110000000000000000e+02	7.724046862956005498e+03
6.120000000000000000e+02	7.765965976721744482e+03
6.130000000000000000e+02	7.807002263990577376e+03
6.140000000000000000e+02	7.847139358123400598e+03
6.150000000000000000e+02	7.886361191764939576e+03
6.160000000000000000e+02	7.924652007544699700e+03
6.170000000000000000e+02	7.961996368611217804e+03
6.180000000000000000e+02	7.998379168989771642e+03
6.190000000000000000e+02	8.033785643753827571e+03
6.200000000000000000e+02	8.068201379000659472e+03
6.210000000000000000e+02	8.101612321621714727e+03
6.220000000000000000e+02	8.134004788858444044e+03
6.230000000000000000e+02	8.165365477634546551e+03
6.240000000000000000e+02	8.195681473655673472e+03
6.250000000000000000e+02	8.224940260267940175e+03
6.260000000000000000e+02	8.253129727066687337e+03
6.270000000000000000e+02	8.280238178247254837e+03
6.280000000000000000e+02	8.306254340689674791e+03
6.290000000000000000e+02	8.331167371769482997e+03
6.300000000000000000e+02	8.354966866887070864e+03
6.310000000000000000e+02	8.377642866708247311e+03
6.320000000000000000e+02	8.399185864108983878e+03
6.330000000000000000e+02	8.419586810817530932e+03
6.340000000000000000e+02	8.438837123747445730e+03
6.350000000000000000e+02	8.456928691015289587e+03
6.360000000000000000e+02	8.473853877637133337e+03
6.370000000000000000e+02	8.489605530898217694e+03
6.380000000000000000e+02	8.504176985390531627e+03
6.390000000000000000e+02	8.517562067713313809e+03
6.400000000000000000e+02	8.529755100831835080e+03
6.410000000000000000e+02	8.540750908090181838e+03
6.420000000000000000e+02	8.550544816874027674e+03
6.430000000000000000e+02	8.559132661919804377e+03
6.440000000000000000e+02	8.566510788266961754e+03
6.450000000000000000e+02	8.572676053850414974e+03
6.460000000000000000e+02	8.577625831730569189e+03
6.470000000000000000e+02	8.581358011958749557e+03
6.480000000000000000e+02	8.583871003076143097e+03
6.490000000000000000e+02	8.585163733244775358e+03
6.500000000000000000e+02	8.585235651009419598e+03
6.510000000000000000e+02	8.584086725689638115e+03
6.520000000000000000e+02	8.581717447401595564e+03
6.530000000000000000e+02	8.578128826709611531e+03
6.540000000000000000e+02	8.573322393907812511e+03
6.550000000000000000e+02	8.567300197932570882e+03
6.560000000000000000e+02	8.560064804906838617e+03
6.570000000000000000e+02	8.551619296317820044e+03
6.580000000000000000e+02	8.541967266829773507e+03
6.590000000000000000e+02	8.531112821734142926e+03
6.600000000000000000e+02	8.519060574039545827e+03
6.610000000000000000e+02	8.505815641204482745e+03
6.620000000000000000e+02	8.491383641516027637e+03
6.630000000000000000e+02	8.475770690118108178e+03
6.640000000000000000e+02	8.458983394693241280e+03
6.650000000000000000e+02	8.441028850802067609e+03
6.660000000000000000e+02	8.421914636885230721e+03
6.670000000000000000e+02	8.401648808932568500e+03
6.680000000000000000e+02	8.380239894824833755e+03
6.690000000000000000e+02	8.357696888353520990e+03
6.700000000000000000e+02	8.334029242924691061e+03
6.710000000000000000e+02	8.309246864952920077e+03
6.720000000000000000e+02	8.283360106951868147e+03
6.730000000000000000e+02	8.256379760328205521e+03
6.740000000000000000e+02	8.228317047885902866e+03
6.750000000000000000e+02	8.199183616048198019e+03
6.760000000000000000e+02	8.168991526804756177e+03
6.770000000000000000e+02	8.137753249391840654e+03
6.780000000000000000e+02	8.105481651713509564e+03
6.790000000000000000e+02	8.072189991512093911e+03
6.800000000000000000e+02	8.037891907296459067e+03
6.810000000000000000e+02	8.002601409036693440e+03
6.820000000000000000e+02	7.966332868634154693e+03
6.830000000000000000e+02	7.929101010175899319e+03
6.840000000000000000e+02	7.890920899982753326e+03
6.850000000000000000e+02	7.851807936460446399e+03
6.860000000000000000e+02	7.811777839763338307e+03
6.870000000000000000e+02	7.770846641280460062e+03
6.880000000000000000e+02	7.729030672953686008e+03
6.890000000000000000e+02	7.686346556437992149e+03
6.900000000000000000e+02	7.642811192113836114e+03
6.910000000000000000e+02	7.598441747961825058e+03
6.920000000000000000e+02	7.553255648309874232e+03
6.930000000000000000e+02	7.507270562463168972e+03
6.940000000000000000e+02	7.460504393227273795e+03
6.950000000000000000e+02	7.412975265334785945e+03
6.960000000000000000e+02	7.364701513785970747e+03
6.970000000000000000e+02	7.315701672113822497e+03
6.980000000000000000e+02	7.265994460584019180e+03
6.990000000000000000e+02	7.215598774340219279e+03
7.000000000000000000e+02	7.164533671505161692e+03
7.010000000000000000e+02	7.112818361247961548e+03
7.020000000000000000e+02	7.060472191828007453e+03
7.030000000000000000e+02	7.007514638625766565e+03
7.040000000000000000e+02	6.953965292170784778e+03
7.050000000000000000e+02	6.899843846177066553e+03
7.060000000000000000e+02	6.845170085595953424e+03
7.070000000000000000e+02	6.789963874696523817e+03
7.080000000000000000e+02	6.734245145183418572e+03
7.090000000000000000e+02	6.678033884361908349e+03
7.100000000000000000e+02	6.621350123359863574e+03
7.110000000000000000e+02	6.564213925416172060e+03
7.120000000000000000e+02	6.506645374245010316e+03
7.130000000000000000e+02	6.448664562485183524e+03
7.140000000000000000e+02	6.390291580243644603e+03
7.150000000000000000e+02	6.331546503742069035e+03
7.160000000000000000e+02	6.272449384075227499e+03
7.170000000000000000e+02	6.213020236089683749e+03
7.180000000000000000e+02	6.153279027391159616e+03
7.190000000000000000e+02	6.093245667488697109e+03
7.200000000000000000e+02	6.032939997083544768e+03
7.210000000000000000e+02	5.972381777510462598e+03
7.220000000000000000e+02	5.911590680338934362e+03
7.230000000000000000e+02	5.850586277141516803e+03
7.240000000000000000e+02	5.789388029436350735e+03
7.250000000000000000e+02	5.728015278810580639e+03
7.260000000000000000e+02	5.666487237231217478e+03
7.270000000000000000e+02	5.604822977549683856e+03
7.280000000000000000e+02	5.543041424206075135e+03
7.290000000000000000e+02	5.481161344138848108e+03
7.300000000000000000e+02	5.419201337905436958e+03
7.310000000000000000e+02	5.357179831019006997e+03
7.320000000000000000e+02	5.295115065506257451e+03
7.330000000000000000e+02	5.233025091690962654e+03
7.340000000000000000e+02	5.170927760207637220e+03
7.350000000000000000e+02	5.108840714249400662e+03
7.360000000000000000e+02	5.046781382053924972e+03
7.370000000000000000e+02	4.984766969630952190e+03
7.380000000000000000e+02	4.922814453734703420e+03
7.390000000000000000e+02	4.860940575084119700e+03
7.400000000000000000e+02	4.799161831833668657e+03
7.410000000000000000e+02	4.737494473297120749e+03
7.420000000000000000e+02	4.675954493926450596e+03
7.430000000000000000e+02	4.614557627547704215e+03
7.440000000000000000e+02	4.553319341855444691e+03
7.450000000000000000e+02	4.492254833167062316e+03
7.460000000000000000e+02	4.431379021437985102e+03
7.470000000000000000e+02	4.370706545538566388e+03
7.480000000000000000e+02	4.310251758793130648e+03
7.490000000000000000e+02	4.250028724781398523e+03
7.500000000000000000e+02	4.190051213402281064e+03
7.510000000000000000e+02	4.130332697199725771e+03
7.520000000000000000e+02	4.070886347950066920e+03
7.530000000000000000e+02	4.011725033510105732e+03
7.540000000000000000e+02	3.952861314924839007e+03
7.550000000000000000e+02	3.894307443793577477e+03
7.560000000000000000e+02	3.836075359892914094e+03
7.570000000000000000e+02	3.778176689054796043e+03
7.580000000000000000e+02	3.720622741297710036e+03
7.590000000000000000e+02	3.663424509208784457e+03
7.600000000000000000e+02	3.606592666574392297e+03
7.610000000000000000e+02	3.550137567256628245e+03
7.620000000000000000e+02	3.494069244312816863e+03
7.630000000000000000e+02	3.438397409355063246e+03
7.640000000000000000e+02	3.383131452146584706e+03
7.650000000000000000e+02	3.328280440431467923e+03
7.660000000000000000e+02	3.273853119994243571e+03
7.670000000000000000e+02	3.219857914945561788e+03
7.680000000000000000e+02	3.166302928230035377e+03
7.690000000000000000e+02	3.113195942352214388e+03
7.700000000000000000e+02	3.060544420316455671e+03
7.710000000000000000e+02	3.008355506776353195e+03
7.720000000000000000e+02	2.956636029389233045e+03
7.730000000000000000e+02	2.905392500371104234e+03
7.740000000000000000e+02	2.854631118247323684e+03
7.750000000000000000e+02	2.804357769794142314e+03
7.760000000000000000e+02	2.754578032166173671e+03
7.770000000000000000e+02	2.705297175204739688e+03
7.780000000000000000e+02	2.656520163921959920e+03
7.790000000000000000e+02	2.608251661155351030e+03
7.800000000000000000e+02	2.560496030387668725e+03
7.810000000000000000e+02	2.513257338726604758e+03
7.820000000000000000e+02	2.466539360038912037e+03
7.830000000000000000e+02	2.420345578233514971e+03
7.840000000000000000e+02	2.374679190688041672e+03
7.850000000000000000e+02	2.329543111813240102e+03
7.860000000000000000e+02	2.284939976749679772e+03
7.870000000000000000e+02	2.240872145191113304e+03
7.880000000000000000e+02	2.197341705328863100e+03
7.890000000000000000e+02	2.154350477911586040e+03
7.900000000000000000e+02	2.111900020414756455e+03
7.910000000000000000e+02	2.069991631314219376e+03
7.920000000000000000e+02	2.028626354458157493e+03
7.930000000000000000e+02	1.987804983531854987e+03
7.940000000000000000e+02	1.947528066609630287e+03
7.950000000000000000e+02	1.907795910788365518e+03
7.960000000000000000e+02	1.868608586897061741e+03
7.970000000000000000e+02	1.829965934276923008e+03
7.980000000000000000e+02	1.791867565626470196e+03
7.990000000000000000e+02	1.754312871906281316e+03
8.000000000000000000e+02	1.717301027297967039e+03
8.010000000000000000e+02	1.680830994212075211e+03
8.020000000000000000e+02	1.644901528339666584e+03
8.030000000000000000e+02	1.609511183742380354e+03
8.040000000000000000e+02	1.574658317975873388e+03
8.050000000000000000e+02	1.540341097241594753e+03
8.060000000000000000e+02	1.506557501561943127e+03
8.070000000000000000e+02	1.473305329973925154e+03
8.080000000000000000e+02	1.440582205736539208e+03
8.090000000000000000e+02	1.408385581547182255e+03
8.100000000000000000e+02	1.376712744762482316e+03
8.110000000000000000e+02	1.345560822619053624e+03
8.120000000000000000e+02	1.314926787449773656e+03
8.130000000000000000e+02	1.284807461891279445e+03
8.140000000000000000e+02	1.255199524078492459e+03
8.150000000000000000e+02	1.226099512822083852e+03
8.160000000000000000e+02	1.197503832764909930e+03
8.170000000000000000e+02	1.169408759513544737e+03
8.180000000000000000e+02	1.141810444741168794e+03
8.190000000000000000e+02	1.114704921258177819e+03
8.200000000000000000e+02	1.088088108046986235e+03
8.210000000000000000e+02	1.061955815257640097e+03
8.220000000000000000e+02	1.036303749160940470e+03
8.230000000000000000e+02	1.011127517055937574e+03
8.240000000000000000e+02	9.864226321287329711e+02
8.250000000000000000e+02	9.621845182596921404e+02
8.260000000000000000e+02	9.384085147762506267e+02
8.270000000000000000e+02	9.150898811486542854e+02
8.280000000000000000e+02	8.922238016260660061e+02
8.290000000000000000e+02	8.698053898106145425e+02
8.300000000000000000e+02	8.478296931670695358e+02
8.310000000000000000e+02	8.262916974659540301e+02
8.320000000000000000e+02	8.051863311580241316e+02
8.330000000000000000e+02	7.845084696781638058e+02
8.340000000000000000e+02	7.642529396768624110e+02
8.350000000000000000e+02	7.444145231775638649e+02
8.360000000000000000e+02	7.249879616582861672e+02
8.370000000000000000e+02	7.059679600560319841e+02
8.380000000000000000e+02	6.873491906926212778e+02
8.390000000000000000e+02	6.691262971206919019e+02
8.400000000000000000e+02	6.512938978887233361e+02
8.410000000000000000e+02	6.338465902240503738e+02
8.420000000000000000e+02	6.167789536329413522e+02
8.430000000000000000e+02	6.000855534169180601e+02
8.440000000000000000e+02	5.837609441046039365e+02
8.450000000000000000e+02	5.677996727984871086e+02
8.460000000000000000e+02	5.521962824360804234e+02
8.470000000000000000e+02	5.369453149650695423e+02
8.480000000000000000e+02	5.220413144321211121e+02
8.490000000000000000e+02	5.074788299851322790e+02
8.500000000000000000e+02	4.932524187887808012e+02
8.510000000000000000e+02	4.793566488533325582e+02
8.520000000000000000e+02	4.657861017767434646e+02
8.530000000000000000e+02	4.525353754001852167e+02
8.540000000000000000e+02	4.395990863771912700e+02
8.550000000000000000e+02	4.269718726567186309e+02
8.560000000000000000e+02	4.146483958804761869e+02
8.570000000000000000e+02	4.026233436949618749e+02
8.580000000000000000e+02	3.908914319787080558e+02
8.590000000000000000e+02	3.794474069853157516e+02
8.600000000000000000e+02	3.682860474029122884e+02
8.610000000000000000e+02	3.574021663307415793e+02
8.620000000000000000e+02	3.467906131736469888e+02
8.630000000000000000e+02	3.364462754552715182e+02
8.640000000000000000e+02	3.263640805508547373e+02
8.650000000000000000e+02	3.165389973405534079e+02
8.660000000000000000e+02	3.069660377842707248e+02
8.670000000000000000e+02	2.976402584190207676e+02
8.680000000000000000e+02	2.885567617799019331e+02
8.690000000000000000e+02	2.797106977457974040e+02
8.700000000000000000e+02	2.710972648109562897e+02
8.710000000000000000e+02	2.627117112836505726e+02
8.720000000000000000e+02	2.545493364131364444e+02
8.730000000000000000e+02	2.466054914461800820e+02
8.740000000000000000e+02	2.388755806144407359e+02
8.750000000000000000e+02	2.313550620540279681e+02
8.760000000000000000e+02	2.240394486585792606e+02
8.770000000000000000e+02	2.169243088672238002e+02
8.780000000000000000e+02	2.100052673888223467e+02
8.790000000000000000e+02	2.032780058638875573e+02
8.800000000000000000e+02	1.967382634656108280e+02
8.810000000000000000e+02	1.903818374414313439e+02
8.820000000000000000e+02	1.842045835965984679e+02
8.830000000000000000e+02	1.782024167211858128e+02
8.840000000000000000e+02	1.723713109620280477e+02
8.850000000000000000e+02	1.667073001410537358e+02
8.860000000000000000e+02	1.612064780214927282e+02
8.870000000000000000e+02	1.558649985234425230e+02
8.880000000000000000e+02	1.506790758902747882e+02
8.890000000000000000e+02	1.456449848073660291e+02
8.900000000000000000e+02	1.407590604746292513e+02
8.910000000000000000e+02	1.360176986343280703e+02
8.920000000000000000e+02	1.314173555556381814e+02
8.930000000000000000e+02	1.269545479774236867e+02
8.940000000000000000e+02	1.226258530106828459e+02
8.950000000000000000e+02	1.184279080021078556e+02
8.960000000000000000e+02	1.143574103601953453e+02
8.970000000000000000e+02	1.104111173453284778e+02
8.980000000000000000e+02	1.065858458252413499e+02
8.990000000000000000e+02	1.028784719972593109e+02
9.000000000000000000e+02	9.928593107869552625e+01
9.010000000000000000e+02	9.580521696676578358e+01
9.020000000000000000e+02	9.243338186936684053e+01
9.030000000000000000e+02	8.916753590804546548e+01
9.040000000000000000e+02	8.600484669446576902e+01
9.050000000000000000e+02	8.294253888166218758e+01
9.060000000000000000e+02	7.997789369134478932e+01
9.070000000000000000e+02	7.710824841850276812e+01
9.080000000000000000e+02	7.433099591452976540e+01
9.090000000000000000e+02	7.164358405007014596e+01
9.100000000000000000e+02	6.904351515876604140e+01
9.110000000000000000e+02	6.652834546305690822e+01
9.120000000000000000e+02	6.409568448316309741e+01
9.130000000000000000e+02	6.174319443035700061e+01
9.140000000000000000e+02	5.946858958560426345e+01
9.150000000000000000e+02	5.726963566462801936e+01
9.160000000000000000e+02	5.514414917042839903e+01
9.170000000000000000e+02	5.308999673425972787e+01
9.180000000000000000e+02	5.110509444604541329e+01
9.190000000000000000e+02	4.918740717518153360e+01
9.200000000000000000e+02	4.733494788265761599e+01
9.210000000000000000e+02	4.554577692539294276e+01
9.220000000000000000e+02	4.381800135366487581e+01
9.230000000000000000e+02	4.214977420247527107e+01
9.240000000000000000e+02	4.053929377767918396e+01
9.250000000000000000e+02	3.898480293767008931e+01
9.260000000000000000e+02	3.748458837139358479e+01
9.270000000000000000e+02	3.603697987343230835e+01
9.280000000000000000e+02	3.464034961688243897e+01
9.290000000000000000e+02	3.329311142471367191e+01
9.300000000000000000e+02	3.199372004028206362e+01
9.310000000000000000e+02	3.074067039763767539e+01
9.320000000000000000e+02	2.953249689224607266e+01
9.330000000000000000e+02	2.836777265271740234e+01
9.340000000000000000e+02	2.724510881411204721e+01
9.350000000000000000e+02	2.616315379336956681e+01
9.360000000000000000e+02	2.512059256738221080e+01
9.370000000000000000e+02	2.411614595421264795e+01
9.380000000000000000e+02	2.314856989793138453e+01
9.390000000000000000e+02	2.221665475752822161e+01
9.400000000000000000e+02	2.131922460032868116e+01
9.410000000000000000e+02	2.045513650032588515e+01
9.420000000000000000e+02	1.962327984181585094e+01
9.430000000000000000e+02	1.882257562870468348e+01
9.440000000000000000e+02	1.805197579983450495e+01
9.450000000000000000e+02	1.731046255065589889e+01
9.460000000000000000e+02	1.659704766155435252e+01
9.470000000000000000e+02	1.591077183312000010e+01
9.480000000000000000e+02	1.525070402863040364e+01
9.490000000000000000e+02	1.461594082399883199e+01
9.500000000000000000e+02	1.400560576542196678e+01
9.510000000000000000e+02	1.341884873494474206e+01
9.520000000000000000e+02	1.285484532414214698e+01
9.530000000000000000e+02	1.231279621610276998e+01
9.540000000000000000e+02	1.179192657588183302e+01
9.550000000000000000e+02	1.129148544957738309e+01
9.560000000000000000e+02	1.081074517216727138e+01
9.570000000000000000e+02	1.034900078423130232e+01
9.580000000000000000e+02	9.905569457667986910e+00
9.590000000000000000e+02	9.479789930502867890e+00
9.600000000000000000e+02	9.071021950871539730e+00
9.610000000000000000e+02	8.678645730248764067e+00
9.620000000000000000e+02	8.302061405982291475e+00
9.630000000000000000e+02	7.940688513179150476e+00
9.640000000000000000e+02	7.593965465980224039e+00
9.650000000000000000e+02	7.261349048249015503e+00
9.660000000000000000e+02	6.942313913689562632e+00
9.670000000000000000e+02	6.636352095398958539e+00
9.680000000000000000e+02	6.342972524850665650e+00
9.690000000000000000e+02	6.061700560295233409e+00
9.700000000000000000e+02	5.792077524557148749e+00
9.710000000000000000e+02	5.533660252197769580e+00
9.720000000000000000e+02	5.286020646006926782e+00
9.730000000000000000e+02	5.048745242777985531e+00
9.740000000000000000e+02	4.821434788314547859e+00
9.750000000000000000e+02	4.603703821609911984e+00
9.760000000000000000e+02	4.395180268134465607e+00
9.770000000000000000e+02	4.195505042159916265e+00
9.780000000000000000e+02	4.004331658044028686e+00
9.790000000000000000e+02	3.821325850393932910e+00
9.800000000000000000e+02	3.646165203021440426e+00
9.810000000000000000e+02	3.478538786598930344e+00
9.820000000000000000e+02	3.318146804920360182e+00
9.830000000000000000e+02	3.164700249667654841e+00
9.840000000000000000e+02	3.017920563579322035e+00
9.850000000000000000e+02	2.877539311914494746e+00
9.860000000000000000e+02	2.743297862102631601e+00
9.870000000000000000e+02	2.614947071466086737e+00
9.880000000000000000e+02	2.492246982900343077e+00
9.890000000000000000e+02	2.374966528394062859e+00
9.900000000000000000e+02	2.262883240269344842e+00
9.910000000000000000e+02	2.155782970020293732e+00
9.920000000000000000e+02	2.053459614626719887e+00
9.930000000000000000e+02	1.955714850217986855e+00
9.940000000000000000e+02	1.862357872961128979e+00
9.950000000000000000e+02	1.773205147045971763e+00
9.960000000000000000e+02	1.688080159639443245e+00
9.970000000000000000e+02	1.606813182680341567e+00
9.980000000000000000e+02	1.529241041385508204e+00
9.990000000000000000e+02	1.455206889337953502e+00
1.000000000000000000e+03	1.384559990027260490e+00
