4.410000000000000000e+02	7.938584980873483232e+01
4.420000000000000000e+02	8.280097650893274874e+01
4.430000000000000000e+02	8.634662972979991480e+01
4.440000000000000000e+02	9.002702419689309465e+01
4.450000000000000000e+02	9.384647635087728190e+01
4.460000000000000000e+02	9.780940533681909699e+01
4.470000000000000000e+02	1.019203339360414020e+02
4.480000000000000000e+02	1.061838894370165605e+02
4.490000000000000000e+02	1.106048044417148475e+02
4.500000000000000000e+02	1.151879176037551389e+02
4.510000000000000000e+02	1.199381742946500964e+02
4.520000000000000000e+02	1.248606271943770309e+02
4.530000000000000000e+02	1.299604368024517953e+02
4.540000000000000000e+02	1.352428718656359763e+02
4.550000000000000000e+02	1.407133097183579764e+02
4.560000000000000000e+02	1.463772365318872062e+02
4.570000000000000000e+02	1.522402474682652667e+02
4.580000000000000000e+02	1.583080467349615787e+02
4.590000000000000000e+02	1.645864475361953225e+02
4.600000000000000000e+02	1.710813719168411069e+02
4.610000000000000000e+02	1.777988504948193906e+02
4.620000000000000000e+02	1.847450220778590619e+02
4.630000000000000000e+02	1.919261331605160876e+02
4.640000000000000000e+02	1.993485372973295284e+02
4.650000000000000000e+02	2.070186943480048853e+02
4.660000000000000000e+02	2.149431695905255708e+02
4.670000000000000000e+02	2.231286326981162631e+02
4.680000000000000000e+02	2.315818565760057481e+02
4.690000000000000000e+02	2.403097160539740287e+02
4.700000000000000000e+02	2.493191864307069068e+02
4.710000000000000000e+02	2.586173418660353605e+02
4.720000000000000000e+02	2.682113536171902979e+02
4.730000000000000000e+02	2.781084881152713706e+02
4.740000000000000000e+02	2.883161048782022249e+02
4.750000000000000000e+02	2.988416542565263399e+02
4.760000000000000000e+02	3.096926750084899709e+02
4.770000000000000000e+02	3.208767917009568009e+02
4.780000000000000000e+02	3.324017119328129866e+02
4.790000000000000000e+02	3.442752233776318462e+02
4.800000000000000000e+02	3.565051906425051129e+02
4.810000000000000000e+02	3.690995519401089382e+02
4.820000000000000000e+02	3.820663155714094614e+02
4.830000000000000000e+02	3.954135562180001671e+02
4.840000000000000000e+02	4.091494110527766566e+02
4.850000000000000000e+02	4.232820757374106506e+02
4.860000000000000000e+02	4.378198007193513490e+02
4.870000000000000000e+02	4.527708900807499504e+02
4.880000000000000000e+02	4.681437142817089239e+02
4.890000000000000000e+02	4.839467895959297152e+02
4.900000000000000000e+02	5.001891511993309791e+02
4.910000000000000000e+02	5.168819193208956904e+02
4.920000000000000000e+02	5.340443369985808886e+02
4.930000000000000000e+02	5.517252418215157377e+02
4.940000000000000000e+02	5.700734723080391859e+02
4.950000000000000000e+02	5.895503232025573652e+02
4.960000000000000000e+02	6.115178520681158716e+02
4.970000000000000000e+02	6.397280849970691179e+02
4.980000000000000000e+02	6.837508943539601205e+02
4.990000000000000000e+02	7.660944920509866733e+02
5.000000000000000000e+02	9.353980137165425504e+02
5.010000000000000000e+02	1.287806956291533652e+03
5.020000000000000000e+02	1.996118009680636533e+03
5.030000000000000000e+02	3.340140897110063634e+03
5.040000000000000000e+02	5.722110278857079720e+03
5.050000000000000000e+02	9.641549640219203866e+03
5.060000000000000000e+02	1.560275152160057951e+04
5.070000000000000000e+02	2.394449906682005894e+04
5.080000000000000000e+02	3.461931162037586910e+04
5.090000000000000000e+02	4.699723469279991696e+04
5.100000000000000000e+02	5.979967980009353778e+04
5.110000000000000000e+02	7.125096223228062445e+04
5.120000000000000000e+02	7.945768564952437009e+04
5.130000000000000000e+02	8.291588940885604825e+04
5.140000000000000000e+02	8.096190961323995725e+04
5.150000000000000000e+02	7.398182047784207680e+04
5.160000000000000000e+02	6.328888841717976175e+04
5.170000000000000000e+02	5.072233444337485707e+04
5.180000000000000000e+02	3.813539065599234891e+04
5.190000000000000000e+02	2.696679497226465173e+04
5.200000000000000000e+02	1.802398367952962872e+04
5.210000000000000000e+02	1.149660111737264742e+04
5.220000000000000000e+02	7.128183211024724187e+03
5.230000000000000000e+02	4.439535532852067263e+03
5.240000000000000000e+02	2.917400005105906530e+03
5.250000000000000000e+02	2.128272226764140669e+03
5.260000000000000000e+02	1.759474337015359197e+03
5.270000000000000000e+02	1.611934870940677229e+03
5.280000000000000000e+02	1.571836828030643346e+03
5.290000000000000000e+02	1.580141147647646221e+03
5.300000000000000000e+02	1.608877844783787850e+03
5.310000000000000000e+02	1.645889243450400727e+03
5.320000000000000000e+02	1.686311031610396867e+03
5.330000000000000000e+02	1.728347747974983122e+03
5.340000000000000000e+02	1.771387281255487551e+03
5.350000000000000000e+02	1.815236990181718511e+03
5.360000000000000000e+02	1.859841150650793679e+03
5.370000000000000000e+02	1.905185129567755666e+03
5.380000000000000000e+02	1.951265490198487214e+03
5.390000000000000000e+02	1.998081388703887797e+03
5.400000000000000000e+02	2.045632281560466708e+03
5.410000000000000000e+02	2.093917354775840522e+03
5.420000000000000000e+02	2.142935386517341158e+03
5.430000000000000000e+02	2.192684710672237088e+03
5.440000000000000000e+02	2.243163202293205813e+03
5.450000000000000000e+02	2.294368267590118194e+03
5.460000000000000000e+02	2.346296834961686727e+03
5.470000000000000000e+02	2.398945346420915030e+03
5.480000000000000000e+02	2.452309749314818418e+03
5.490000000000000000e+02	2.506385488335493847e+03
5.500000000000000000e+02	2.561167497835418999e+03
5.510000000000000000e+02	2.616650194462180025e+03
5.520000000000000000e+02	2.672827470128116147e+03
5.530000000000000000e+02	2.729692685330264339e+03
5.540000000000000000e+02	2.787238662835896321e+03
5.550000000000000000e+02	2.845457681748759114e+03
5.560000000000000000e+02	2.904341471970932616e+03
5.570000000000000000e+02	2.963881209075033439e+03
5.580000000000000000e+02	3.024067509601225993e+03
5.590000000000000000e+02	3.084890426793232564e+03
5.600000000000000000e+02	3.146339446787262204e+03
5.610000000000000000e+02	3.208403485267428096e+03
5.620000000000000000e+02	3.271070884600875615e+03
5.630000000000000000e+02	3.334329411465486828e+03
5.640000000000000000e+02	3.398166254982583723e+03
5.650000000000000000e+02	3.462568025366658730e+03
5.660000000000000000e+02	3.527520753103669449e+03
5.670000000000000000e+02	3.593009888668964322e+03
5.680000000000000000e+02	3.659020302795394400e+03
5.690000000000000000e+02	3.725536287301616085e+03
5.700000000000000000e+02	3.792541556490030871e+03
5.710000000000000000e+02	3.860019249123234204e+03
5.720000000000000000e+02	3.927951930987195738e+03
5.730000000000000000e+02	3.996321598048801661e+03
5.740000000000000000e+02	4.065109680214684431e+03
5.750000000000000000e+02	4.134297045697624526e+03
5.760000000000000000e+02	4.203864005996066226e+03
5.770000000000000000e+02	4.273790321491593204e+03
5.780000000000000000e+02	4.344055207668447110e+03
5.790000000000000000e+02	4.414637341958419711e+03
5.800000000000000000e+02	4.485514871213657898e+03
5.810000000000000000e+02	4.556665419809125524e+03
5.820000000000000000e+02	4.628066098375657930e+03
5.830000000000000000e+02	4.699693513163700118e+03
5.840000000000000000e+02	4.771523776037000971e+03
5.850000000000000000e+02	4.843532515094641894e+03
5.860000000000000000e+02	4.915694885918969703e+03
5.870000000000000000e+02	4.987985583446066812e+03
5.880000000000000000e+02	5.060378854454546854e+03
5.890000000000000000e+02	5.132848510667559822e+03
5.900000000000000000e+02	5.205367942462011342e+03
5.910000000000000000e+02	5.277910133178056640e+03
5.920000000000000000e+02	5.350447674021084822e+03
5.930000000000000000e+02	5.422952779547468708e+03
5.940000000000000000e+02	5.495397303724445010e+03
5.950000000000000000e+02	5.567752756553633844e+03
5.960000000000000000e+02	5.639990321246753410e+03
5.970000000000000000e+02	5.712080871941236182e+03
5.980000000000000000e+02	5.783994991942540764e+03
5.990000000000000000e+02	5.855702992479104068e+03
6.000000000000000000e+02	5.927174931954977183e+03
6.010000000000000000e+02	5.998380635684357912e+03
6.020000000000000000e+02	6.069289716091401715e+03
6.030000000000000000e+02	6.139871593357828715e+03
6.040000000000000000e+02	6.210095516500062331e+03
6.050000000000000000e+02	6.279930584856855603e+03
6.060000000000000000e+02	6.349345769967540036e+03
6.070000000000000000e+02	6.418309937820341474e+03
6.080000000000000000e+02	6.486791871449440805e+03
6.090000000000000000e+02	6.554760293858746991e+03
6.100000000000000000e+02	6.622183891249727822e+03
6.110000000000000000e+02	6.689031336529911641e+03
6.120000000000000000e+02	6.755271313078129424e+03
6.130000000000000000e+02	6.820872538741920835e+03
6.140000000000000000e+02	6.885803790041999491e+03
6.150000000000000000e+02	6.950033926558120584e+03
6.160000000000000000e+02	7.013531915470227432e+03
6.170000000000000000e+02	7.076266856228268807e+03
6.180000000000000000e+02	7.138208005323680482e+03
6.190000000000000000e+02	7.199324801135108828e+03
6.200000000000000000e+02	7.259586888820655076e+03
6.210000000000000000e+02	7.318964145228545021e+03
6.220000000000000000e+02	7.377426703797938899e+03
6.230000000000000000e+02	7.434944979421289645e+03
6.240000000000000000e+02	7.491489693239545886e+03
6.250000000000000000e+02	7.547031897341302283e+03
6.260000000000000000e+02	7.601542999336920730e+03
6.270000000000000000e+02	7.654994786778584057e+03
6.280000000000000000e+02	7.707359451397242083e+03
6.290000000000000000e+02	7.758609613127428020e+03
6.300000000000000000e+02	7.808718343890995129e+03
6.310000000000000000e+02	7.857659191110970824e+03
6.320000000000000000e+02	7.905406200926859128e+03
6.330000000000000000e+02	7.951933941082958881e+03
6.340000000000000000e+02	7.997217523461483324e+03
6.350000000000000000e+02	8.041232626232624170e+03
6.360000000000000000e+02	8.083955515593985183e+03
6.370000000000000000e+02	8.125363067072236845e+03
6.380000000000000000e+02	8.165432786360259342e+03
6.390000000000000000e+02	8.204142829663525845e+03
6.400000000000000000e+02	8.241472023529977378e+03
6.410000000000000000e+02	8.277399884138216294e+03
6.420000000000000000e+02	8.311906636019437428e+03
6.430000000000000000e+02	8.344973230189156311e+03
6.440000000000000000e+02	8.376581361665468648e+03
6.450000000000000000e+02	8.406713486351301981e+03
6.460000000000000000e+02	8.435352837258866202e+03
6.470000000000000000e+02	8.462483440055313622e+03
6.480000000000000000e+02	8.488090127909417788e+03
6.490000000000000000e+02	8.512158555619973413e+03
6.500000000000000000e+02	8.534675213007489219e+03
6.510000000000000000e+02	8.555627437551678668e+03
6.520000000000000000e+02	8.575003426258190302e+03
6.530000000000000000e+02	8.592792246739032635e+03
6.540000000000000000e+02	8.608983847492094355e+03
6.550000000000000000e+02	8.623569067366281161e+03
6.560000000000000000e+02	8.636539644199739996e+03
6.570000000000000000e+02	8.647888222619803855e+03
6.580000000000000000e+02	8.657608360994336181e+03
6.590000000000000000e+02	8.665694537525274427e+03
6.600000000000000000e+02	8.672142155476312837e+03
6.610000000000000000e+02	8.676947547527788629e+03
6.620000000000000000e+02	8.680107979253003577e+03
6.630000000000000000e+02	8.681621651711346203e+03
6.640000000000000000e+02	8.681487703154816700e+03
6.650000000000000000e+02	8.679706209845628109e+03
6.660000000000000000e+02	8.676278185983857838e+03
6.670000000000000000e+02	8.671205582745198626e+03
6.680000000000000000e+02	8.664491286430116816e+03
6.690000000000000000e+02	8.656139115726859018e+03
6.700000000000000000e+02	8.646153818091946960e+03
6.710000000000000000e+02	8.634541065252969929e+03
6.720000000000000000e+02	8.621307447839617453e+03
6.730000000000000000e+02	8.606460469150099016e+03
6.740000000000000000e+02	8.590008538061165382e+03
6.750000000000000000e+02	8.571960961091150239e+03
6.760000000000000000e+02	8.552327933626493177e+03
6.770000000000000000e+02	8.531120530323325511e+03
6.780000000000000000e+02	8.508350694696777282e+03
6.790000000000000000e+02	8.484031227911695169e+03
6.800000000000000000e+02	8.458175776789525116e+03
6.810000000000000000e+02	8.430798821047030287e+03
6.820000000000000000e+02	8.401915659783617230e+03
6.830000000000000000e+02	8.371542397234876262e+03
6.840000000000000000e+02	8.339695927810909780e+03
6.850000000000000000e+02	8.306393920438929854e+03
6.860000000000000000e+02	8.271654802230405039e+03
6.870000000000000000e+02	8.235497741493893045e+03
6.880000000000000000e+02	8.197942630115498105e+03
6.890000000000000000e+02	8.159010065329573081e+03
6.900000000000000000e+02	8.118721330903078524e+03
6.910000000000000000e+02	8.077098377757633898e+03
6.920000000000000000e+02	8.034163804053935564e+03
6.930000000000000000e+02	7.989940834763811836e+03
6.940000000000000000e+02	7.944453300755769305e+03
6.950000000000000000e+02	7.897725617420316667e+03
6.960000000000000000e+02	7.849782762861918854e+03
6.970000000000000000e+02	7.800650255684767217e+03
6.980000000000000000e+02	7.750354132400002527e+03
6.990000000000000000e+02	7.698920924482302325e+03
7.000000000000000000e+02	7.646377635104107867e+03
7.010000000000000000e+02	7.592751715575926937e+03
7.020000000000000000e+02	7.538071041521437110e+03
7.030000000000000000e+02	7.482363888816208600e+03
7.040000000000000000e+02	7.425658909319011400e+03
7.050000000000000000e+02	7.367985106424733203e+03
7.060000000000000000e+02	7.309371810467958312e+03
7.070000000000000000e+02	7.249848654006222205e+03
7.080000000000000000e+02	7.189445547011942836e+03
7.090000000000000000e+02	7.128192652001836905e+03
7.100000000000000000e+02	7.066120359132590238e+03
7.110000000000000000e+02	7.003259261291244911e+03
7.120000000000000000e+02	6.939640129208629332e+03
7.130000000000000000e+02	6.875293886623813705e+03
7.140000000000000000e+02	6.810251585527313182e+03
7.150000000000000000e+02	6.744544381510349922e+03
7.160000000000000000e+02	6.678203509247163311e+03
7.170000000000000000e+02	6.611260258136864650e+03
7.180000000000000000e+02	6.543745948130898796e+03
7.190000000000000000e+02	6.475691905771701386e+03
7.200000000000000000e+02	6.407129440467532731e+03
7.210000000000000000e+02	6.338089821027994731e+03
7.220000000000000000e+02	6.268604252484070457e+03
7.230000000000000000e+02	6.198703853215926756e+03
7.240000000000000000e+02	6.128419632411089879e+03
7.250000000000000000e+02	6.057782467874857502e+03
7.260000000000000000e+02	5.986823084214171104e+03
7.270000000000000000e+02	5.915572031415413221e+03
7.280000000000000000e+02	5.844059663835817446e+03
7.290000000000000000e+02	5.772316119627436819e+03
7.300000000000000000e+02	5.700371300611831430e+03
7.310000000000000000e+02	5.628254852622759245e+03
7.320000000000000000e+02	5.555996146333406614e+03
7.330000000000000000e+02	5.483624258583793562e+03
7.340000000000000000e+02	5.411167954223152265e+03
7.350000000000000000e+02	5.338655668481225803e+03
7.360000000000000000e+02	5.266115489881504800e+03
7.370000000000000000e+02	5.193575143708605538e+03
7.380000000000000000e+02	5.121061976041030903e+03
7.390000000000000000e+02	5.048602938359709697e+03
7.400000000000000000e+02	4.976224572741767588e+03
7.410000000000000000e+02	4.903952997648121709e+03
7.420000000000000000e+02	4.831813894312535012e+03
7.430000000000000000e+02	4.759832493738937046e+03
7.440000000000000000e+02	4.688033564312813724e+03
7.450000000000000000e+02	4.616441400031702869e+03
7.460000000000000000e+02	4.545079809358814600e+03
7.470000000000000000e+02	4.473972104703017067e+03
7.480000000000000000e+02	4.403141092527474939e+03
7.490000000000000000e+02	4.332609064088424020e+03
7.500000000000000000e+02	4.262397786804669522e+03
7.510000000000000000e+02	4.192528496257582447e+03
7.520000000000000000e+02	4.123021888820521781e+03
7.530000000000000000e+02	4.053898114915814858e+03
7.540000000000000000e+02	3.985176772896617877e+03
7.550000000000000000e+02	3.916876903550210045e+03
7.560000000000000000e+02	3.849016985218508580e+03
7.570000000000000000e+02	3.781614929530848258e+03
7.580000000000000000e+02	3.714688077743352551e+03
7.590000000000000000e+02	3.648253197678519882e+03
7.600000000000000000e+02	3.582326481257967316e+03
7.610000000000000000e+02	3.516923542620622356e+03
7.620000000000000000e+02	3.452059416818010050e+03
7.630000000000000000e+02	3.387748559077688697e+03
7.640000000000000000e+02	3.324004844625287660e+03
7.650000000000000000e+02	3.260841569055047785e+03
7.660000000000000000e+02	3.198271449238229252e+03
7.670000000000000000e+02	3.136306624758241924e+03
7.680000000000000000e+02	3.074958659860873922e+03
7.690000000000000000e+02	3.014238545907532625e+03
7.700000000000000000e+02	2.954156704318992070e+03
7.710000000000000000e+02	2.894722989996734668e+03
7.720000000000000000e+02	2.835946695208589517e+03
7.730000000000000000e+02	2.777836553925050339e+03
7.740000000000000000e+02	2.720400746592307314e+03
7.750000000000000000e+02	2.663646905327752847e+03
7.760000000000000000e+02	2.607582119523447545e+03
7.770000000000000000e+02	2.552212941842803048e+03
7.780000000000000000e+02	2.497545394595515972e+03
7.790000000000000000e+02	2.443584976475616713e+03
7.800000000000000000e+02	2.390336669647333110e+03
7.810000000000000000e+02	2.337804947163335328e+03
7.820000000000000000e+02	2.285993780699826857e+03
7.830000000000000000e+02	2.234906648592874262e+03
7.840000000000000000e+02	2.184546544160298254e+03
7.850000000000000000e+02	2.134915984293433212e+03
7.860000000000000000e+02	2.086017018303050008e+03
7.870000000000000000e+02	2.037851237003761980e+03
7.880000000000000000e+02	1.990419782021267338e+03
7.890000000000000000e+02	1.943723355306849271e+03
7.900000000000000000e+02	1.897762228843644607e+03
7.910000000000000000e+02	1.852536254529294865e+03
7.920000000000000000e+02	1.808044874219718849e+03
7.930000000000000000e+02	1.764287129918904384e+03
7.940000000000000000e+02	1.721261674099771881e+03
7.950000000000000000e+02	1.678966780141352729e+03
7.960000000000000000e+02	1.637400352867734227e+03
7.970000000000000000e+02	1.596559939174430383e+03
7.980000000000000000e+02	1.556442738728084805e+03
7.990000000000000000e+02	1.517045614725660016e+03
8.000000000000000000e+02	1.478365104699530775e+03
8.010000000000000000e+02	1.440397431355183926e+03
8.020000000000000000e+02	1.403138513428515125e+03
8.030000000000000000e+02	1.366583976550018861e+03
8.040000000000000000e+02	1.330729164103486028e+03
8.050000000000000000e+02	1.295569148067148944e+03
8.060000000000000000e+02	1.261098739825549956e+03
8.070000000000000000e+02	1.227312500940748578e+03
8.080000000000000000e+02	1.194204753871848879e+03
8.090000000000000000e+02	1.161769592632173271e+03
8.100000000000000000e+02	1.130000893373785857e+03
8.110000000000000000e+02	1.098892324889438896e+03
8.120000000000000000e+02	1.068437359022384953e+03
8.130000000000000000e+02	1.038629280974891799e+03
8.140000000000000000e+02	1.009461199506667640e+03
8.150000000000000000e+02	9.809260570148051102e+02
8.160000000000000000e+02	9.530166394872221645e+02
8.170000000000000000e+02	9.257255863219944558e+02
8.180000000000000000e+02	8.990454000053323398e+02
8.190000000000000000e+02	8.729684556413790233e+02
8.200000000000000000e+02	8.474870103273615314e+02
8.210000000000000000e+02	8.225932123680498762e+02
8.220000000000000000e+02	7.982791103238290589e+02
8.230000000000000000e+02	7.745366618871034916e+02
8.240000000000000000e+02	7.513577425821093811e+02
8.250000000000000000e+02	7.287341542836019244e+02
8.260000000000000000e+02	7.066576335502469419e+02
8.270000000000000000e+02	6.851198597689174221e+02
8.280000000000000000e+02	6.641124631064539017e+02
8.290000000000000000e+02	6.436270322658095893e+02
8.300000000000000000e+02	6.236551220438394694e+02
8.310000000000000000e+02	6.041882606883490325e+02
8.320000000000000000e+02	5.852179570523449001e+02
8.330000000000000000e+02	5.667357075437590765e+02
8.340000000000000000e+02	5.487330028692459791e+02
8.350000000000000000e+02	5.312013345709575560e+02
8.360000000000000000e+02	5.141322013555094372e+02
8.370000000000000000e+02	4.975171152146511986e+02
8.380000000000000000e+02	4.813476073374334305e+02
8.390000000000000000e+02	4.656152338139520452e+02
8.400000000000000000e+02	4.503115811310142362e+02
8.410000000000000000e+02	4.354282714603348268e+02
8.420000000000000000e+02	4.209569677401194099e+02
8.430000000000000000e+02	4.068893785511349961e+02
8.440000000000000000e+02	3.932172627886030227e+02
8.450000000000000000e+02	3.799324341314653566e+02
8.460000000000000000e+02	3.670267653107938486e+02
8.470000000000000000e+02	3.544921921793139745e+02
8.480000000000000000e+02	3.423207175842065908e+02
8.490000000000000000e+02	3.305044150455331078e+02
8.500000000000000000e+02	3.190354322428098044e+02
8.510000000000000000e+02	3.079059943124127585e+02
8.520000000000000000e+02	2.971084069586564169e+02
8.530000000000000000e+02	2.866350593815284356e+02
8.540000000000000000e+02	2.764784270242027446e+02
8.550000000000000000e+02	2.666310741435760292e+02
8.560000000000000000e+02	2.570856562071923577e+02
8.570000000000000000e+02	2.478349221200249133e+02
8.580000000000000000e+02	2.388717162846859878e+02
8.590000000000000000e+02	2.301889804987232253e+02
8.600000000000000000e+02	2.217797556927437483e+02
8.610000000000000000e+02	2.136371835131785986e+02
8.620000000000000000e+02	2.057545077535648090e+02
8.630000000000000000e+02	1.981250756382802933e+02
8.640000000000000000e+02	1.907423389627116137e+02
8.650000000000000000e+02	1.835998550938789435e+02
8.660000000000000000e+02	1.766912878355727230e+02
8.670000000000000000e+02	1.700104081620853549e+02
8.680000000000000000e+02	1.635510948246366070e+02
8.690000000000000000e+02	1.573073348346062232e+02
8.700000000000000000e+02	1.512732238276913961e+02
8.710000000000000000e+02	1.454429663131070356e+02
8.720000000000000000e+02	1.398108758119359152e+02
8.730000000000000000e+02	1.343713748887298607e+02
8.740000000000000000e+02	1.291189950804374860e+02
8.750000000000000000e+02	1.240483767267145367e+02
8.760000000000000000e+02	1.191542687056431049e+02
8.770000000000000000e+02	1.144315280788503344e+02
8.780000000000000000e+02	1.098751196499821674e+02
8.790000000000000000e+02	1.054801154404414660e+02
8.800000000000000000e+02	1.012416940862554497e+02
8.810000000000000000e+02	9.715514015988466667e+01
8.820000000000000000e+02	9.321584342073310836e+01
8.830000000000000000e+02	8.941929799805936341e+01
8.840000000000000000e+02	8.576110150992917625e+01
8.850000000000000000e+02	8.223695412178491893e+01
8.860000000000000000e+02	7.884265754814040861e+01
8.870000000000000000e+02	7.557411400084198760e+01
8.880000000000000000e+02	7.242732508726295748e+01
8.890000000000000000e+02	6.939839066172675075e+01
8.900000000000000000e+02	6.648350763337761293e+01
8.910000000000000000e+02	6.367896873364145449e+01
8.920000000000000000e+02	6.098116124633988733e+01
8.930000000000000000e+02	5.838656570344141272e+01
8.940000000000000000e+02	5.589175454935278253e+01
8.950000000000000000e+02	5.349339077657131725e+01
8.960000000000000000e+02	5.118822653543662682e+01
8.970000000000000000e+02	4.897310172063768619e+01
8.980000000000000000e+02	4.684494253704645672e+01
8.990000000000000000e+02	4.480076004736658035e+01
9.000000000000000000e+02	4.283764870400195690e+01
9.010000000000000000e+02	4.095278486746514801e+01
9.020000000000000000e+02	3.914342531356301436e+01
9.030000000000000000e+02	3.740690573151376697e+01
9.040000000000000000e+02	3.574063921506592578e+01
9.050000000000000000e+02	3.414211474860828588e+01
9.060000000000000000e+02	3.260889569017853518e+01
9.070000000000000000e+02	3.113861825319642307e+01
9.080000000000000000e+02	2.972898998866889997e+01
9.090000000000000000e+02	2.837778826953433509e+01
9.100000000000000000e+02	2.708285877873657910e+01
9.110000000000000000e+02	2.584211400254140401e+01
9.120000000000000000e+02	2.465353173053397384e+01
9.130000000000000000e+02	2.351515356366042298e+01
9.140000000000000000e+02	2.242508343160508844e+01
9.150000000000000000e+02	2.138148612072241761e+01
9.160000000000000000e+02	2.038258581367384537e+01
9.170000000000000000e+02	1.942666464185045783e+01
9.180000000000000000e+02	1.851206125159620086e+01
9.190000000000000000e+02	1.763716938518104982e+01
9.200000000000000000e+02	1.680043647740976454e+01
9.210000000000000000e+02	1.600036226868995115e+01
9.220000000000000000e+02	1.523549743532357681e+01
9.230000000000000000e+02	1.450444223772662689e+01
9.240000000000000000e+02	1.380584518722553256e+01
9.250000000000000000e+02	1.313840173202384420e+01
9.260000000000000000e+02	1.250085296287918091e+01
9.270000000000000000e+02	1.189198433897911400e+01
9.280000000000000000e+02	1.131062443445494736e+01
9.290000000000000000e+02	1.075564370592405972e+01
9.300000000000000000e+02	1.022595328140574011e+01
9.310000000000000000e+02	9.720503770910386976e+00
9.320000000000000000e+02	9.238284098959555379e+00
9.330000000000000000e+02	8.778320359253172001e+00
9.340000000000000000e+02	8.339674691660636796e+00
9.350000000000000000e+02	7.921444181675393104e+00
9.360000000000000000e+02	7.522759782436006404e+00
9.370000000000000000e+02	7.142785259382675278e+00
9.380000000000000000e+02	6.780716157585346515e+00
9.390000000000000000e+02	6.435778791748342442e+00
9.400000000000000000e+02	6.107229258866937016e+00
9.410000000000000000e+02	5.794352473483071364e+00
9.420000000000000000e+02	5.496461225460982369e+00
9.430000000000000000e+02	5.212895260178338930e+00
9.440000000000000000e+02	4.943020381004821218e+00
9.450000000000000000e+02	4.686227573917829403e+00
9.460000000000000000e+02	4.441932154084060613e+00
9.470000000000000000e+02	4.209572934216233797e+00
9.480000000000000000e+02	3.988611414495811136e+00
9.490000000000000000e+02	3.778530993835701679e+00
9.500000000000000000e+02	3.578836202241016284e+00
9.510000000000000000e+02	3.389051954011463863e+00
9.520000000000000000e+02	3.208722821515357815e+00
9.530000000000000000e+02	3.037412329252967780e+00
9.540000000000000000e+02	2.874702267915643539e+00
9.550000000000000000e+02	2.720192028136820372e+00
9.560000000000000000e+02	2.573497953621818990e+00
9.570000000000000000e+02	2.434252713335045115e+00
9.580000000000000000e+02	2.302104692415790410e+00
9.590000000000000000e+02	2.176717401487296311e+00
9.600000000000000000e+02	2.057768904018201894e+00
9.610000000000000000e+02	1.944951261390551966e+00
9.620000000000000000e+02	1.837969995324448824e+00
9.630000000000000000e+02	1.736543567306229940e+00
9.640000000000000000e+02	1.640402874664274258e+00
9.650000000000000000e+02	1.549290762934667054e+00
9.660000000000000000e+02	1.462961554157610644e+00
9.670000000000000000e+02	1.381180590744700787e+00
9.680000000000000000e+02	1.303723794557130500e+00
9.690000000000000000e+02	1.230377240835170749e+00
9.700000000000000000e+02	1.160936746620239157e+00
9.710000000000000000e+02	1.095207473312227897e+00
9.720000000000000000e+02	1.033003543006557612e+00
9.730000000000000000e+02	9.741476682577397961e-01
9.740000000000000000e+02	9.184707949187954634e-01
9.750000000000000000e+02	8.658117577089395889e-01
9.760000000000000000e+02	8.160169481652693735e-01
9.770000000000000000e+02	7.689399946378661088e-01
9.780000000000000000e+02	7.244414539916830265e-01
9.790000000000000000e+02	6.823885146828163606e-01
9.800000000000000000e+02	6.426547108812420417e-01
9.810000000000000000e+02	6.051196473167772538e-01
9.820000000000000000e+02	5.696687345299712435e-01
9.830000000000000000e+02	5.361929342146812827e-01
9.840000000000000000e+02	5.045885143443634702e-01
9.850000000000000000e+02	4.747568137795084575e-01
9.860000000000000000e+02	4.466040160591788766e-01
9.870000000000000000e+02	4.200409320852506179e-01
9.880000000000000000e+02	3.949827914137015172e-01
9.890000000000000000e+02	3.713490418731092979e-01
9.900000000000000000e+02	3.490631572364120139e-01
9.910000000000000000e+02	3.280524526779241556e-01
9.920000000000000000e+02	3.082479077535822398e-01
9.930000000000000000e+02	2.895839966484066164e-01
9.940000000000000000e+02	2.719985254411878550e-01
9.950000000000000000e+02	2.554324761424376922e-01
9.960000000000000000e+02	2.398298572676784701e-01
9.970000000000000000e+02	2.251375607141414825e-01
9.980000000000000000e+02	2.113052247149425633e-01
9.990000000000000000e+02	1.982851026507613246e-01
1.000000000000000000e+03	1.860319375049551138e-01
