4.410000000000000000e+02	4.193777521770647354e+01
4.420000000000000000e+02	4.401840701607110873e+01
4.430000000000000000e+02	4.619248743247084121e+01
4.440000000000000000e+02	4.846368912345693047e+01
4.450000000000000000e+02	5.083580256296200872e+01
4.460000000000000000e+02	5.331273854842251581e+01
4.470000000000000000e+02	5.589853069944569341e+01
4.480000000000000000e+02	5.859733794540591134e+01
4.490000000000000000e+02	6.141344699819754993e+01
4.500000000000000000e+02	6.435127480621029861e+01
4.510000000000000000e+02	6.741537098542954709e+01
4.520000000000000000e+02	7.061042022340423330e+01
4.530000000000000000e+02	7.394124465165894833e+01
4.540000000000000000e+02	7.741280618196640262e+01
4.550000000000000000e+02	8.103020880173075113e+01
4.560000000000000000e+02	8.479870082357278704e+01
4.570000000000000000e+02	8.872367708404263453e+01
4.580000000000000000e+02	9.281068108622990565e+01
4.590000000000000000e+02	9.706540708087651126e+01
4.600000000000000000e+02	1.014937020804465817e+02
4.610000000000000000e+02	1.061015678004472704e+02
4.620000000000000000e+02	1.108951625221488086e+02
4.630000000000000000e+02	1.158808028706965132e+02
4.640000000000000000e+02	1.210649655024683682e+02
4.650000000000000000e+02	1.264542886953875751e+02
4.660000000000000000e+02	1.320555738357632265e+02
4.670000000000000000e+02	1.378757867951024139e+02
4.680000000000000000e+02	1.439220591902080457e+02
4.690000000000000000e+02	1.502016895197608051e+02
4.700000000000000000e+02	1.567221441704641336e+02
4.710000000000000000e+02	1.634910582857324641e+02
4.720000000000000000e+02	1.705162364897938119e+02
4.730000000000000000e+02	1.778056534599964209e+02
4.740000000000000000e+02	1.853674543400184973e+02
4.750000000000000000e+02	1.932099549866127006e+02
4.760000000000000000e+02	2.013416420424457556e+02
4.770000000000000000e+02	2.097711728275503447e+02
4.780000000000000000e+02	2.185073750418484053e+02
4.790000000000000000e+02	2.275592462711885275e+02
4.800000000000000000e+02	2.369359532893068092e+02
4.810000000000000000e+02	2.466468311481292233e+02
4.820000000000000000e+02	2.567013820488754732e+02
4.830000000000000000e+02	2.671092739868240074e+02
4.840000000000000000e+02	2.778803391652621713e+02
4.850000000000000000e+02	2.890245721916663229e+02
4.860000000000000000e+02	3.005521281760319425e+02
4.870000000000000000e+02	3.124733214548919591e+02
4.880000000000000000e+02	3.247986288123322538e+02
4.890000000000000000e+02	3.375387161982441171e+02
4.900000000000000000e+02	3.507045748362057225e+02
4.910000000000000000e+02	3.643081240874902278e+02
4.920000000000000000e+02	3.783646468842023296e+02
4.930000000000000000e+02	3.929018400781092737e+02
4.940000000000000000e+02	4.079907684275893303e+02
4.950000000000000000e+02	4.238431441256164476e+02
4.960000000000000000e+02	4.410914990990932552e+02
4.970000000000000000e+02	4.615259748201808634e+02
4.980000000000000000e+02	4.898546819395786542e+02
4.990000000000000000e+02	5.374976652382475777e+02
5.000000000000000000e+02	6.298833361386880370e+02
5.010000000000000000e+02	8.187472274600695528e+02
5.020000000000000000e+02	1.199695763682088909e+03
5.030000000000000000e+02	1.931815579060314121e+03
5.040000000000000000e+02	3.250155114578208668e+03
5.050000000000000000e+02	5.455384555304776768e+03
5.060000000000000000e+02	8.862750368074719518e+03
5.070000000000000000e+02	1.370107363320731019e+04
5.080000000000000000e+02	1.997539279560898649e+04
5.090000000000000000e+02	2.733810712012707882e+04
5.100000000000000000e+02	3.503594911933701951e+04
5.110000000000000000e+02	4.199247243602374510e+04
5.120000000000000000e+02	4.703824398218421265e+04
5.130000000000000000e+02	4.922913824555216706e+04
5.140000000000000000e+02	4.813560936664920882e+04
5.150000000000000000e+02	4.398162146289437806e+04
5.160000000000000000e+02	3.757170060001928505e+04
5.170000000000000000e+02	3.003864555606286376e+04
5.180000000000000000e+02	2.252025252650520997e+04
5.190000000000000000e+02	1.589067664612697445e+04
5.200000000000000000e+02	1.062832619645819068e+04
5.210000000000000000e+02	6.830154334840175579e+03
5.220000000000000000e+02	4.323809697279541069e+03
5.230000000000000000e+02	2.808622173751479295e+03
5.240000000000000000e+02	1.971283319436692409e+03
5.250000000000000000e+02	1.552828263358239838e+03
5.260000000000000000e+02	1.370302620711376221e+03
5.270000000000000000e+02	1.309679711575868168e+03
5.280000000000000000e+02	1.307213508131485469e+03
5.290000000000000000e+02	1.330619415823539839e+03
5.300000000000000000e+02	1.364989716150204458e+03
5.310000000000000000e+02	1.404021756698485433e+03
5.320000000000000000e+02	1.445270163503678532e+03
5.330000000000000000e+02	1.487864644439972153e+03
5.340000000000000000e+02	1.531523357431250133e+03
5.350000000000000000e+02	1.576166162101584405e+03
5.360000000000000000e+02	1.621776384067251229e+03
5.370000000000000000e+02	1.668355572262303895e+03
5.380000000000000000e+02	1.715909892502183993e+03
5.390000000000000000e+02	1.764446351356417836e+03
5.400000000000000000e+02	1.813971819656624348e+03
5.410000000000000000e+02	1.864492788732570034e+03
5.420000000000000000e+02	1.916015303251283058e+03
5.430000000000000000e+02	1.968544933325694956e+03
5.440000000000000000e+02	2.022086754705826252e+03
5.450000000000000000e+02	2.076645330539752649e+03
5.460000000000000000e+02	2.132224693464816028e+03
5.470000000000000000e+02	2.188828327827917292e+03
5.480000000000000000e+02	2.246459152022717262e+03
5.490000000000000000e+02	2.305119500963707196e+03
5.500000000000000000e+02	2.364811108722481094e+03
5.510000000000000000e+02	2.425535091352705422e+03
5.520000000000000000e+02	2.487291929930789593e+03
5.530000000000000000e+02	2.550081453839635742e+03
5.540000000000000000e+02	2.613902824323214645e+03
5.550000000000000000e+02	2.678754518339991591e+03
5.560000000000000000e+02	2.744634312743505689e+03
5.570000000000000000e+02	2.811539268818627534e+03
5.580000000000000000e+02	2.879465717202175256e+03
5.590000000000000000e+02	2.948409243216739924e+03
5.600000000000000000e+02	3.018364672646612689e+03
5.610000000000000000e+02	3.089326057984786985e+03
5.620000000000000000e+02	3.161286665179965894e+03
5.630000000000000000e+02	3.234238960912468883e+03
5.640000000000000000e+02	3.308174600427812948e+03
5.650000000000000000e+02	3.383084415956567682e+03
5.660000000000000000e+02	3.458958405748900532e+03
5.670000000000000000e+02	3.535785723751924252e+03
5.680000000000000000e+02	3.613554669957669375e+03
5.690000000000000000e+02	3.692252681449086595e+03
5.700000000000000000e+02	3.771866324171104225e+03
5.710000000000000000e+02	3.852381285453216151e+03
5.720000000000000000e+02	3.933782367309581787e+03
5.730000000000000000e+02	4.016053480541995668e+03
5.740000000000000000e+02	4.099177639670417193e+03
5.750000000000000000e+02	4.183136958715055698e+03
5.760000000000000000e+02	4.267912647853234375e+03
5.770000000000000000e+02	4.353485010973417047e+03
5.780000000000000000e+02	4.439833444147902810e+03
5.790000000000000000e+02	4.526936435044780410e+03
5.800000000000000000e+02	4.614771563298708315e+03
5.810000000000000000e+02	4.703315501859074175e+03
5.820000000000000000e+02	4.792544019332966855e+03
5.830000000000000000e+02	4.882431983339274666e+03
5.840000000000000000e+02	4.972953364888983742e+03
5.850000000000000000e+02	5.064081243805554550e+03
5.860000000000000000e+02	5.155787815197931195e+03
5.870000000000000000e+02	5.248044396997386684e+03
5.880000000000000000e+02	5.340821438568073063e+03
5.890000000000000000e+02	5.434088530399651972e+03
5.900000000000000000e+02	5.527814414888985993e+03
5.910000000000000000e+02	5.621966998216318643e+03
5.920000000000000000e+02	5.716513363319833843e+03
5.930000000000000000e+02	5.811419783970955905e+03
5.940000000000000000e+02	5.906651739951091258e+03
5.950000000000000000e+02	6.002173933328912426e+03
5.960000000000000000e+02	6.097950305835631298e+03
5.970000000000000000e+02	6.193944057333988894e+03
5.980000000000000000e+02	6.290117665375052638e+03
5.990000000000000000e+02	6.386432905835103156e+03
6.000000000000000000e+02	6.482850874623258278e+03
6.010000000000000000e+02	6.579332010448653818e+03
6.020000000000000000e+02	6.675836118634293598e+03
6.030000000000000000e+02	6.772322395962911287e+03
6.040000000000000000e+02	6.868749456538428603e+03
6.050000000000000000e+02	6.965075358644819971e+03
6.060000000000000000e+02	7.061257632582480255e+03
6.070000000000000000e+02	7.157253309460407763e+03
6.080000000000000000e+02	7.253018950920795760e+03
6.090000000000000000e+02	7.348510679770934985e+03
6.100000000000000000e+02	7.443684211495584350e+03
6.110000000000000000e+02	7.538494886621336263e+03
6.120000000000000000e+02	7.632897703902835929e+03
6.130000000000000000e+02	7.726847354299094150e+03
6.140000000000000000e+02	7.820298255706545206e+03
6.150000000000000000e+02	7.913204588413977945e+03
6.160000000000000000e+02	8.005520331242907559e+03
6.170000000000000000e+02	8.097199298335560343e+03
6.180000000000000000e+02	8.188195176551152144e+03
6.190000000000000000e+02	8.278461563429829766e+03
6.200000000000000000e+02	8.367952005682303934e+03
6.210000000000000000e+02	8.456620038161925550e+03
6.220000000000000000e+02	8.544419223274819160e+03
6.230000000000000000e+02	8.631303190782460661e+03
6.240000000000000000e+02	8.717225677950105819e+03
6.250000000000000000e+02	8.802140569993391182e+03
6.260000000000000000e+02	8.886001940774578543e+03
6.270000000000000000e+02	8.968764093698964643e+03
6.280000000000000000e+02	9.050381602761259273e+03
6.290000000000000000e+02	9.130809353691007345e+03
6.300000000000000000e+02	9.210002585145512057e+03
6.310000000000000000e+02	9.287916929898115995e+03
6.320000000000000000e+02	9.364508455969351417e+03
6.330000000000000000e+02	9.439733707647959818e+03
6.340000000000000000e+02	9.513549746348589906e+03
6.350000000000000000e+02	9.585914191252748424e+03
6.360000000000000000e+02	9.656785259679438241e+03
6.370000000000000000e+02	9.726121807131950845e+03
6.380000000000000000e+02	9.793883366967302209e+03
6.390000000000000000e+02	9.860030189634988346e+03
6.400000000000000000e+02	9.924523281431969735e+03
6.410000000000000000e+02	9.987324442721144806e+03
6.420000000000000000e+02	1.004839630556103475e+04
6.430000000000000000e+02	1.010770237069485302e+04
6.440000000000000000e+02	1.016520704384786404e+04
6.450000000000000000e+02	1.022087567128252522e+04
6.460000000000000000e+02	1.027467457456181728e+04
6.470000000000000000e+02	1.032657108447195424e+04
6.480000000000000000e+02	1.037653357405671886e+04
6.490000000000000000e+02	1.042453149071670850e+04
6.500000000000000000e+02	1.047053538732788002e+04
6.510000000000000000e+02	1.051451695233509417e+04
6.520000000000000000e+02	1.055644903877760044e+04
6.530000000000000000e+02	1.059630569220482721e+04
6.540000000000000000e+02	1.063406217744232708e+04
6.550000000000000000e+02	1.066969500416919072e+04
6.560000000000000000e+02	1.070318195126999490e+04
6.570000000000000000e+02	1.073450208992585794e+04
6.580000000000000000e+02	1.076363580541109513e+04
6.590000000000000000e+02	1.079056481756365065e+04
6.600000000000000000e+02	1.081527219989941295e+04
6.610000000000000000e+02	1.083774239734245566e+04
6.620000000000000000e+02	1.085796124254517053e+04
6.630000000000000000e+02	1.087591597077435472e+04
6.640000000000000000e+02	1.089159523334133337e+04
6.650000000000000000e+02	1.090498910955636165e+04
6.660000000000000000e+02	1.091608911718964737e+04
6.670000000000000000e+02	1.092488822142358003e+04
6.680000000000000000e+02	1.093138084228292428e+04
6.690000000000000000e+02	1.093556286053198892e+04
6.700000000000000000e+02	1.093743162203007159e+04
6.710000000000000000e+02	1.093698594053868874e+04
6.720000000000000000e+02	1.093422609897648363e+04
6.730000000000000000e+02	1.092915384911991168e+04
6.740000000000000000e+02	1.092177240975018321e+04
6.750000000000000000e+02	1.091208646324916663e+04
6.760000000000000000e+02	1.090010215064933072e+04
6.770000000000000000e+02	1.088582706514503479e+04
6.780000000000000000e+02	1.086927024407475801e+04
6.790000000000000000e+02	1.085044215938612615e+04
6.800000000000000000e+02	1.082935470659783277e+04
6.810000000000000000e+02	1.080602119227471303e+04
6.820000000000000000e+02	1.078045632003444916e+04
6.830000000000000000e+02	1.075267617510652599e+04
6.840000000000000000e+02	1.072269820746607729e+04
6.850000000000000000e+02	1.069054121356745782e+04
6.860000000000000000e+02	1.065622531670424178e+04
6.870000000000000000e+02	1.061977194602441159e+04
6.880000000000000000e+02	1.058120381423134495e+04
6.890000000000000000e+02	1.054054489400310922e+04
6.900000000000000000e+02	1.049782039316429655e+04
6.910000000000000000e+02	1.045305672864641201e+04
6.920000000000000000e+02	1.040628149927446793e+04
6.930000000000000000e+02	1.035752345741898534e+04
6.940000000000000000e+02	1.030681247955418621e+04
6.950000000000000000e+02	1.025417953576454602e+04
6.960000000000000000e+02	1.019965665824324424e+04
6.970000000000000000e+02	1.014327690882734896e+04
6.980000000000000000e+02	1.008507434561576702e+04
6.990000000000000000e+02	1.002508398871708596e+04
7.000000000000000000e+02	9.963341785175494806e+03
7.010000000000000000e+02	9.899884573123872542e+03
7.020000000000000000e+02	9.834750045214032070e+03
7.030000000000000000e+02	9.767976711374856677e+03
7.040000000000000000e+02	9.699603860949697264e+03
7.050000000000000000e+02	9.629671524265071639e+03
7.060000000000000000e+02	9.558220433683103693e+03
7.070000000000000000e+02	9.485291984190605945e+03
7.080000000000000000e+02	9.410928193578007267e+03
7.090000000000000000e+02	9.335171662261494930e+03
7.100000000000000000e+02	9.258065532801922018e+03
7.110000000000000000e+02	9.179653449174080379e+03
7.120000000000000000e+02	9.099979515839761007e+03
7.130000000000000000e+02	9.019088256678045582e+03
7.140000000000000000e+02	8.937024573825907282e+03
7.150000000000000000e+02	8.853833706481935224e+03
7.160000000000000000e+02	8.769561189725571239e+03
7.170000000000000000e+02	8.684252813403758410e+03
7.180000000000000000e+02	8.597954581136320485e+03
7.190000000000000000e+02	8.510712669490732878e+03
7.200000000000000000e+02	8.422573387376216488e+03
7.210000000000000000e+02	8.333583135706263420e+03
7.220000000000000000e+02	8.243788367377805116e+03
7.230000000000000000e+02	8.153235547614315692e+03
7.240000000000000000e+02	8.061971114719030993e+03
7.250000000000000000e+02	7.970041441283483437e+03
7.260000000000000000e+02	7.877492795895260315e+03
7.270000000000000000e+02	7.784371305387777284e+03
7.280000000000000000e+02	7.690722917673525444e+03
7.290000000000000000e+02	7.596593365200907101e+03
7.300000000000000000e+02	7.502028129073434684e+03
7.310000000000000000e+02	7.407072403868574838e+03
7.320000000000000000e+02	7.311771063192064503e+03
7.330000000000000000e+02	7.216168626002020574e+03
7.340000000000000000e+02	7.120309223735541309e+03
7.350000000000000000e+02	7.024236568268989686e+03
7.360000000000000000e+02	6.927993920741399961e+03
7.370000000000000000e+02	6.831624061268917103e+03
7.380000000000000000e+02	6.735169259576407967e+03
7.390000000000000000e+02	6.638671246570685980e+03
7.400000000000000000e+02	6.542171186878132175e+03
7.410000000000000000e+02	6.445709652367666422e+03
7.420000000000000000e+02	6.349326596678353781e+03
7.430000000000000000e+02	6.253061330769137385e+03
7.440000000000000000e+02	6.156952499506431195e+03
7.450000000000000000e+02	6.061038059303547925e+03
7.460000000000000000e+02	5.965355256824212120e+03
7.470000000000000000e+02	5.869940608760603027e+03
7.480000000000000000e+02	5.774829882694672960e+03
7.490000000000000000e+02	5.680058079049741536e+03
7.500000000000000000e+02	5.585659414137670865e+03
7.510000000000000000e+02	5.491667304305188736e+03
7.520000000000000000e+02	5.398114351181312486e+03
7.530000000000000000e+02	5.305032328026128198e+03
7.540000000000000000e+02	5.212452167179588287e+03
7.550000000000000000e+02	5.120403948607383427e+03
7.560000000000000000e+02	5.028916889539383192e+03
7.570000000000000000e+02	4.938019335194630912e+03
7.580000000000000000e+02	4.847738750585363050e+03
7.590000000000000000e+02	4.758101713391096382e+03
7.600000000000000000e+02	4.669133907892410207e+03
7.610000000000000000e+02	4.580860119952664718e+03
7.620000000000000000e+02	4.493304233034616118e+03
7.630000000000000000e+02	4.406489225237565734e+03
7.640000000000000000e+02	4.320437167339498956e+03
7.650000000000000000e+02	4.235169221827446563e+03
7.660000000000000000e+02	4.150705642898214137e+03
7.670000000000000000e+02	4.067065777410519331e+03
7.680000000000000000e+02	3.984268066768575409e+03
7.690000000000000000e+02	3.902330049716165377e+03
7.700000000000000000e+02	3.821268366019364748e+03
7.710000000000000000e+02	3.741098761015191940e+03
7.720000000000000000e+02	3.661836091002655394e+03
7.730000000000000000e+02	3.583494329451948488e+03
7.740000000000000000e+02	3.506086574006806586e+03
7.750000000000000000e+02	3.429625054254446695e+03
7.760000000000000000e+02	3.354121140236909014e+03
7.770000000000000000e+02	3.279585351677087601e+03
7.780000000000000000e+02	3.206027367892293569e+03
7.790000000000000000e+02	3.133456038367771271e+03
7.800000000000000000e+02	3.061879393962221002e+03
7.810000000000000000e+02	2.991304658717097936e+03
7.820000000000000000e+02	2.921738262241196935e+03
7.830000000000000000e+02	2.853185852641844576e+03
7.840000000000000000e+02	2.785652309973872889e+03
7.850000000000000000e+02	2.719141760177460583e+03
7.860000000000000000e+02	2.653657589475892564e+03
7.870000000000000000e+02	2.589202459204286242e+03
7.880000000000000000e+02	2.525778321040398623e+03
7.890000000000000000e+02	2.463386432608741870e+03
7.900000000000000000e+02	2.402027373429348700e+03
7.910000000000000000e+02	2.341701061182783178e+03
7.920000000000000000e+02	2.282406768263159393e+03
7.930000000000000000e+02	2.224143138591276056e+03
7.940000000000000000e+02	2.166908204660231149e+03
7.950000000000000000e+02	2.110699404786295872e+03
7.960000000000000000e+02	2.055513600538166429e+03
7.970000000000000000e+02	2.001347094318177824e+03
7.980000000000000000e+02	1.948195647069507231e+03
7.990000000000000000e+02	1.896054496083889717e+03
8.000000000000000000e+02	1.844918372884889095e+03
8.010000000000000000e+02	1.794781521162320587e+03
8.020000000000000000e+02	1.745637714733999701e+03
8.030000000000000000e+02	1.697480275511578384e+03
8.040000000000000000e+02	1.650302091447866360e+03
8.050000000000000000e+02	1.604095634443682684e+03
8.060000000000000000e+02	1.558852978192921682e+03
8.070000000000000000e+02	1.514565815945226632e+03
8.080000000000000000e+02	1.471225478166336870e+03
8.090000000000000000e+02	1.428822950076901861e+03
8.100000000000000000e+02	1.387348889051258084e+03
8.110000000000000000e+02	1.346793641858410638e+03
8.120000000000000000e+02	1.307147261728207241e+03
8.130000000000000000e+02	1.268399525226404194e+03
8.140000000000000000e+02	1.230539948923132215e+03
8.150000000000000000e+02	1.193557805839975799e+03
8.160000000000000000e+02	1.157442141661670803e+03
8.170000000000000000e+02	1.122181790699168459e+03
8.180000000000000000e+02	1.087765391591580965e+03
8.190000000000000000e+02	1.054181402735284564e+03
8.200000000000000000e+02	1.021418117429192307e+03
8.210000000000000000e+02	9.894636787259833000e+02
8.220000000000000000e+02	9.583060939797992432e+02
8.230000000000000000e+02	9.279332490816597101e+02
8.240000000000000000e+02	8.983329223745865875e+02
8.250000000000000000e+02	8.694927982411248877e+02
8.260000000000000000e+02	8.414004803566811006e+02
8.270000000000000000e+02	8.140435046027728276e+02
8.280000000000000000e+02	7.874093516349856827e+02
8.290000000000000000e+02	7.614854591010935110e+02
8.300000000000000000e+02	7.362592335054600881e+02
8.310000000000000000e+02	7.117180617164793830e+02
8.320000000000000000e+02	6.878493221144393601e+02
8.330000000000000000e+02	6.646403953778071809e+02
8.340000000000000000e+02	6.420786749065179038e+02
8.350000000000000000e+02	6.201515768814338116e+02
8.360000000000000000e+02	5.988465499596983364e+02
8.370000000000000000e+02	5.781510846062404880e+02
8.380000000000000000e+02	5.580527220622127516e+02
8.390000000000000000e+02	5.385390629516498393e+02
8.400000000000000000e+02	5.195977755281093096e+02
8.410000000000000000e+02	5.012166035635239041e+02
8.420000000000000000e+02	4.833833738819378141e+02
8.430000000000000000e+02	4.660860035412194975e+02
8.440000000000000000e+02	4.493125066662504423e+02
8.450000000000000000e+02	4.330510009374672222e+02
8.460000000000000000e+02	4.172897137390016837e+02
8.470000000000000000e+02	4.020169879710044256e+02
8.480000000000000000e+02	3.872212875310598292e+02
8.490000000000000000e+02	3.728912024699038739e+02
8.500000000000000000e+02	3.590154538269413820e+02
8.510000000000000000e+02	3.455828981513180906e+02
8.520000000000000000e+02	3.325825317145534541e+02
8.530000000000000000e+02	3.200034944209618857e+02
8.540000000000000000e+02	3.078350734222974552e+02
8.550000000000000000e+02	2.960667064432469147e+02
8.560000000000000000e+02	2.846879848245631024e+02
8.570000000000000000e+02	2.736886562907886855e+02
8.580000000000000000e+02	2.630586274496480996e+02
8.590000000000000000e+02	2.527879660303115372e+02
8.600000000000000000e+02	2.428669028678297366e+02
8.610000000000000000e+02	2.332858336411304094e+02
8.620000000000000000e+02	2.240353203720310091e+02
8.630000000000000000e+02	2.151060926927842445e+02
8.640000000000000000e+02	2.064890488897052023e+02
8.650000000000000000e+02	1.981752567304652075e+02
8.660000000000000000e+02	1.901559540826391981e+02
8.670000000000000000e+02	1.824225493311033688e+02
8.680000000000000000e+02	1.749666216018588045e+02
8.690000000000000000e+02	1.677799207998358213e+02
8.700000000000000000e+02	1.608543674681976370e+02
8.710000000000000000e+02	1.541820524766110339e+02
8.720000000000000000e+02	1.477552365458985264e+02
8.730000000000000000e+02	1.415663496164125661e+02
8.740000000000000000e+02	1.356079900674033638e+02
8.750000000000000000e+02	1.298729237945557884e+02
8.760000000000000000e+02	1.243540831527859893e+02
8.770000000000000000e+02	1.190445657712786698e+02
8.780000000000000000e+02	1.139376332476430207e+02
8.790000000000000000e+02	1.090267097279419488e+02
8.800000000000000000e+02	1.043053803792348333e+02
8.810000000000000000e+02	9.976738976113780666e+01
8.820000000000000000e+02	9.540664010277868101e+01
8.830000000000000000e+02	9.121718949138120536e+01
8.840000000000000000e+02	8.719324997857275150e+01
8.850000000000000000e+02	8.332918561036160554e+01
8.860000000000000000e+02	7.961951038658132518e+01
8.870000000000000000e+02	7.605888615544643017e+01
8.880000000000000000e+02	7.264212044870642160e+01
8.890000000000000000e+02	6.936416426273140701e+01
8.900000000000000000e+02	6.622010979069719383e+01
8.910000000000000000e+02	6.320518811088303579e+01
8.920000000000000000e+02	6.031476683592765653e+01
8.930000000000000000e+02	5.754434772773131357e+01
8.940000000000000000e+02	5.488956428252370756e+01
8.950000000000000000e+02	5.234617929045940343e+01
8.960000000000000000e+02	4.991008237393449321e+01
8.970000000000000000e+02	4.757728750866075984e+01
8.980000000000000000e+02	4.534393053136742679e+01
8.990000000000000000e+02	4.320626663784420884e+01
9.000000000000000000e+02	4.116066787487724810e+01
9.010000000000000000e+02	3.920362062947336312e+01
9.020000000000000000e+02	3.733172311861244452e+01
9.030000000000000000e+02	3.554168288261266895e+01
9.040000000000000000e+02	3.383031428504386895e+01
9.050000000000000000e+02	3.219453602197232556e+01
9.060000000000000000e+02	3.063136864317624131e+01
9.070000000000000000e+02	2.913793208782498567e+01
9.080000000000000000e+02	2.771144323697581058e+01
9.090000000000000000e+02	2.634921348510136951e+01
9.100000000000000000e+02	2.504864633272856977e+01
9.110000000000000000e+02	2.380723500213471766e+01
9.120000000000000000e+02	2.262256007792050028e+01
9.130000000000000000e+02	2.149228717415161682e+01
9.140000000000000000e+02	2.041416462964085099e+01
9.150000000000000000e+02	1.938602123282188927e+01
9.160000000000000000e+02	1.840576397755267024e+01
9.170000000000000000e+02	1.747137585107327595e+01
9.180000000000000000e+02	1.658091365523592131e+01
9.190000000000000000e+02	1.573250586202040857e+01
9.200000000000000000e+02	1.492435050424685450e+01
9.210000000000000000e+02	1.415471310230109125e+01
9.220000000000000000e+02	1.342192462759421723e+01
9.230000000000000000e+02	1.272437950338768431e+01
9.240000000000000000e+02	1.206053364352906776e+01
9.250000000000000000e+02	1.142890252956102692e+01
9.260000000000000000e+02	1.082805932658598458e+01
9.270000000000000000e+02	1.025663303819413485e+01
9.280000000000000000e+02	9.713306700689148698e+00
9.290000000000000000e+02	9.196815616777511693e+00
9.300000000000000000e+02	8.705945628821771365e+00
9.310000000000000000e+02	8.239531431695262143e+00
9.320000000000000000e+02	7.796454925217194187e+00
9.330000000000000000e+02	7.375643606091073501e+00
9.340000000000000000e+02	6.976068999216178845e+00
9.350000000000000000e+02	6.596745128192644358e+00
9.360000000000000000e+02	6.236727024793487395e+00
9.370000000000000000e+02	5.895109277133351533e+00
9.380000000000000000e+02	5.571024616222246983e+00
9.390000000000000000e+02	5.263642540554807958e+00
9.400000000000000000e+02	4.972167978349353312e+00
9.410000000000000000e+02	4.695839987018533002e+00
9.420000000000000000e+02	4.433930489422235333e+00
9.430000000000000000e+02	4.185743046425769442e+00
9.440000000000000000e+02	3.950611665260188587e+00
9.450000000000000000e+02	3.727899643158369525e+00
9.460000000000000000e+02	3.516998445718861888e+00
9.470000000000000000e+02	3.317326619430430501e+00
9.480000000000000000e+02	3.128328737772933188e+00
9.490000000000000000e+02	2.949474380294858200e+00
9.500000000000000000e+02	2.780257144054298468e+00
9.510000000000000000e+02	2.620193686798643729e+00
9.520000000000000000e+02	2.468822801248141907e+00
9.530000000000000000e+02	2.325704519840061657e+00
9.540000000000000000e+02	2.190419249283527048e+00
9.550000000000000000e+02	2.062566934269506103e+00
9.560000000000000000e+02	1.941766249676640355e+00
9.570000000000000000e+02	1.827653820610721569e+00
9.580000000000000000e+02	1.719883469614397198e+00
9.590000000000000000e+02	1.618125490383251375e+00
9.600000000000000000e+02	1.522065947325375035e+00
9.610000000000000000e+02	1.431406000303357962e+00
9.620000000000000000e+02	1.345861253900490162e+00
9.630000000000000000e+02	1.265161130556794689e+00
9.640000000000000000e+02	1.189048266925070596e+00
9.650000000000000000e+02	1.117277932802560825e+00
9.660000000000000000e+02	1.049617471999996443e+00
9.670000000000000000e+02	9.858457645166407435e-01
9.680000000000000000e+02	9.257527093973143550e-01
9.690000000000000000e+02	8.691387276555212482e-01
9.700000000000000000e+02	8.158142846552450811e-01
9.710000000000000000e+02	7.655994313530953832e-01
9.720000000000000000e+02	7.183233638118623476e-01
9.730000000000000000e+02	6.738240004064629529e-01
9.740000000000000000e+02	6.319475761533880354e-01
9.750000000000000000e+02	5.925482536053097160e-01
9.760000000000000000e+02	5.554877497632185746e-01
9.770000000000000000e+02	5.206349784695163407e-01
9.780000000000000000e+02	4.878657077566280198e-01
9.790000000000000000e+02	4.570622316370925309e-01
9.800000000000000000e+02	4.281130558325531577e-01
9.810000000000000000e+02	4.009125969506703302e-01
9.820000000000000000e+02	3.753608946306565275e-01
9.830000000000000000e+02	3.513633361898164664e-01
9.840000000000000000e+02	3.288303933152599279e-01
9.850000000000000000e+02	3.076773703566393903e-01
9.860000000000000000e+02	2.878241637875521008e-01
9.870000000000000000e+02	2.691950324148488782e-01
9.880000000000000000e+02	2.517183779267768706e-01
9.890000000000000000e+02	2.353265353823810468e-01
9.900000000000000000e+02	2.199555732560621313e-01
9.910000000000000000e+02	2.055451026625078059e-01
9.920000000000000000e+02	1.920380953984493488e-01
9.930000000000000000e+02	1.793807104487604720e-01
9.940000000000000000e+02	1.675221286153614209e-01
9.950000000000000000e+02	1.564143949381595622e-01
9.960000000000000000e+02	1.460122685878730564e-01
9.970000000000000000e+02	1.362730799210151722e-01
9.980000000000000000e+02	1.271565943975737356e-01
9.990000000000000000e+02	1.186248830719720121e-01
1.000000000000000000e+03	1.106421993777750717e-01
