4.410000000000000000e+02	1.165836778052313889e+02
4.420000000000000000e+02	1.211288659400633492e+02
4.430000000000000000e+02	1.258291029367724576e+02
4.440000000000000000e+02	1.306887184966907114e+02
4.450000000000000000e+02	1.357121241480470246e+02
4.460000000000000000e+02	1.409038132405080432e+02
4.470000000000000000e+02	1.462683608661263293e+02
4.480000000000000000e+02	1.518104237039511020e+02
4.490000000000000000e+02	1.575347397855485951e+02
4.500000000000000000e+02	1.634461281786755933e+02
4.510000000000000000e+02	1.695494885863422496e+02
4.520000000000000000e+02	1.758498008585090133e+02
4.530000000000000000e+02	1.823521244136618691e+02
4.540000000000000000e+02	1.890615975675239895e+02
4.550000000000000000e+02	1.959834367661774479e+02
4.560000000000000000e+02	2.031229357208812587e+02
4.570000000000000000e+02	2.104854644419029341e+02
4.580000000000000000e+02	2.180764681687045083e+02
4.590000000000000000e+02	2.259014661938566633e+02
4.600000000000000000e+02	2.339660505780955191e+02
4.610000000000000000e+02	2.422758847539760438e+02
4.620000000000000000e+02	2.508367020156261731e+02
4.630000000000000000e+02	2.596543038921614652e+02
4.640000000000000000e+02	2.687345584023729543e+02
4.650000000000000000e+02	2.780833981883698698e+02
4.660000000000000000e+02	2.877068185259304300e+02
4.670000000000000000e+02	2.976108752093832663e+02
4.680000000000000000e+02	3.078016823089304239e+02
4.690000000000000000e+02	3.182854097984036912e+02
4.700000000000000000e+02	3.290682810515460233e+02
4.710000000000000000e+02	3.401565702050031632e+02
4.720000000000000000e+02	3.515565993863183962e+02
4.730000000000000000e+02	3.632747358053326820e+02
4.740000000000000000e+02	3.753173887075143398e+02
4.750000000000000000e+02	3.876910061878582496e+02
4.760000000000000000e+02	4.004020718641299936e+02
4.770000000000000000e+02	4.134571014083637692e+02
4.780000000000000000e+02	4.268626389356618347e+02
4.790000000000000000e+02	4.406252532494967795e+02
4.800000000000000000e+02	4.547515339428675816e+02
4.810000000000000000e+02	4.692480873548494742e+02
4.820000000000000000e+02	4.841215323824355323e+02
4.830000000000000000e+02	4.993784961491649597e+02
4.840000000000000000e+02	5.150256095419033500e+02
4.850000000000000000e+02	5.310695026883743139e+02
4.860000000000000000e+02	5.475168008044628323e+02
4.870000000000000000e+02	5.643741227635661062e+02
4.880000000000000000e+02	5.816480943331648632e+02
4.890000000000000000e+02	5.993454321705164602e+02
4.900000000000000000e+02	6.174733417573214638e+02
4.910000000000000000e+02	6.360412008672574302e+02
4.920000000000000000e+02	6.550670980641704091e+02
4.930000000000000000e+02	6.746012511080147078e+02
4.940000000000000000e+02	6.948033166176686564e+02
4.950000000000000000e+02	7.161771696408322896e+02
4.960000000000000000e+02	7.402249462938946181e+02
4.970000000000000000e+02	7.711120170661729389e+02
4.980000000000000000e+02	8.195197593237967340e+02
4.990000000000000000e+02	9.106883664941851748e+02
5.000000000000000000e+02	1.099387803387168333e+03
5.010000000000000000e+02	1.494282997354988993e+03
5.020000000000000000e+02	2.291305322801694729e+03
5.030000000000000000e+02	3.808610577109277983e+03
5.040000000000000000e+02	6.504607237964350134e+03
5.050000000000000000e+02	1.094956837570391326e+04
5.060000000000000000e+02	1.771977515197929461e+04
5.070000000000000000e+02	2.720206204996935048e+04
5.080000000000000000e+02	3.934018690671305376e+04
5.090000000000000000e+02	5.340974228696447972e+04
5.100000000000000000e+02	6.794353121347450360e+04
5.110000000000000000e+02	8.090827107054881344e+04
5.120000000000000000e+02	9.014321628585642611e+04
5.130000000000000000e+02	9.394353221579905949e+04
5.140000000000000000e+02	9.157495369197170658e+04
5.150000000000000000e+02	8.350693323542368307e+04
5.160000000000000000e+02	7.126285212484473595e+04
5.170000000000000000e+02	5.695276964492887055e+04
5.180000000000000000e+02	4.268506960434938082e+04
5.190000000000000000e+02	3.008038717152569734e+04
5.200000000000000000e+02	2.003226689085086036e+04
5.210000000000000000e+02	1.273162311124483676e+04
5.220000000000000000e+02	7.868842267711992463e+03
5.230000000000000000e+02	4.890401146990088819e+03
5.240000000000000000e+02	3.212177189930381246e+03
5.250000000000000000e+02	2.345679835231132984e+03
5.260000000000000000e+02	1.941511434616362521e+03
5.270000000000000000e+02	1.778962069652044192e+03
5.280000000000000000e+02	1.732813990594385814e+03
5.290000000000000000e+02	1.738617747913046060e+03
5.300000000000000000e+02	1.766081091545030404e+03
5.310000000000000000e+02	1.802142736895041025e+03
5.320000000000000000e+02	1.841618930290606841e+03
5.330000000000000000e+02	1.882610835342021119e+03
5.340000000000000000e+02	1.924474664004012766e+03
5.350000000000000000e+02	1.967007337211442518e+03
5.360000000000000000e+02	2.010148253894509253e+03
5.370000000000000000e+02	2.053879173618895038e+03
5.380000000000000000e+02	2.098193310056130031e+03
5.390000000000000000e+02	2.143086534159036546e+03
5.400000000000000000e+02	2.188555058934393401e+03
5.410000000000000000e+02	2.234594872757235862e+03
5.420000000000000000e+02	2.281201607796260760e+03
5.430000000000000000e+02	2.328370508600314224e+03
5.440000000000000000e+02	2.376096422169314792e+03
5.450000000000000000e+02	2.424373792460814911e+03
5.460000000000000000e+02	2.473196655924009519e+03
5.470000000000000000e+02	2.522558637437263769e+03
5.480000000000000000e+02	2.572452946550122306e+03
5.490000000000000000e+02	2.622872374022177155e+03
5.500000000000000000e+02	2.673809288665765052e+03
5.510000000000000000e+02	2.725255634501540499e+03
5.520000000000000000e+02	2.777202928236011303e+03
5.530000000000000000e+02	2.829642257069996504e+03
5.540000000000000000e+02	2.882564276846694156e+03
5.550000000000000000e+02	2.935959210547819112e+03
5.560000000000000000e+02	2.989816847145968040e+03
5.570000000000000000e+02	3.044126540821117487e+03
5.580000000000000000e+02	3.098877210548817402e+03
5.590000000000000000e+02	3.154057340067344740e+03
5.600000000000000000e+02	3.209654978230733832e+03
5.610000000000000000e+02	3.265657739754248723e+03
5.620000000000000000e+02	3.322052806358487032e+03
5.630000000000000000e+02	3.378826928317924285e+03
5.640000000000000000e+02	3.435966426419307027e+03
5.650000000000000000e+02	3.493457194334885571e+03
5.660000000000000000e+02	3.551284701415042491e+03
5.670000000000000000e+02	3.609433995904447784e+03
5.680000000000000000e+02	3.667889708585381868e+03
5.690000000000000000e+02	3.726636056851442390e+03
5.700000000000000000e+02	3.785656849214318754e+03
5.710000000000000000e+02	3.844935490245869914e+03
5.720000000000000000e+02	3.904454985957209828e+03
5.730000000000000000e+02	3.964197949615987909e+03
5.740000000000000000e+02	4.024146608002547964e+03
5.750000000000000000e+02	4.084282808105091135e+03
5.760000000000000000e+02	4.144588024253440381e+03
5.770000000000000000e+02	4.205043365690447899e+03
5.780000000000000000e+02	4.265629584579526636e+03
5.790000000000000000e+02	4.326327084446237677e+03
5.800000000000000000e+02	4.387115929051260537e+03
5.810000000000000000e+02	4.447975851691560820e+03
5.820000000000000000e+02	4.508886264925918113e+03
5.830000000000000000e+02	4.569826270720463981e+03
5.840000000000000000e+02	4.630774671009246049e+03
5.850000000000000000e+02	4.691709978664291157e+03
5.860000000000000000e+02	4.752610428869025782e+03
5.870000000000000000e+02	4.813453990888344379e+03
5.880000000000000000e+02	4.874218380228047863e+03
5.890000000000000000e+02	4.934881071175762372e+03
5.900000000000000000e+02	4.995419309714907286e+03
5.910000000000000000e+02	5.055810126802688501e+03
5.920000000000000000e+02	5.116030352002556356e+03
5.930000000000000000e+02	5.176056627460964592e+03
5.940000000000000000e+02	5.235865422217777450e+03
5.950000000000000000e+02	5.295433046839056260e+03
5.960000000000000000e+02	5.354735668360514865e+03
5.970000000000000000e+02	5.413749325529306589e+03
5.980000000000000000e+02	5.472449944331404367e+03
5.990000000000000000e+02	5.530813353791237205e+03
6.000000000000000000e+02	5.588815302029840495e+03
6.010000000000000000e+02	5.646431472567251149e+03
6.020000000000000000e+02	5.703637500854462814e+03
6.030000000000000000e+02	5.760408991019785390e+03
6.040000000000000000e+02	5.816721532814051898e+03
6.050000000000000000e+02	5.872550718738699288e+03
6.060000000000000000e+02	5.927872161340369530e+03
6.070000000000000000e+02	5.982661510655299935e+03
6.080000000000000000e+02	6.036894471786440590e+03
6.090000000000000000e+02	6.090546822595887534e+03
6.100000000000000000e+02	6.143594431494941091e+03
6.110000000000000000e+02	6.196013275313798658e+03
6.120000000000000000e+02	6.247779457232625646e+03
6.130000000000000000e+02	6.298869224755538198e+03
6.140000000000000000e+02	6.349258987708791210e+03
6.150000000000000000e+02	6.398925336244290520e+03
6.160000000000000000e+02	6.447845058829387199e+03
6.170000000000000000e+02	6.495995160203764499e+03
6.180000000000000000e+02	6.543352879284134360e+03
6.190000000000000000e+02	6.589895706997348498e+03
6.200000000000000000e+02	6.635601404022509996e+03
6.210000000000000000e+02	6.680448018422589485e+03
6.220000000000000000e+02	6.724413903146109078e+03
6.230000000000000000e+02	6.767477733379409983e+03
6.240000000000000000e+02	6.809618523730146990e+03
6.250000000000000000e+02	6.850815645222656713e+03
6.260000000000000000e+02	6.891048842086021978e+03
6.270000000000000000e+02	6.930298248315731144e+03
6.280000000000000000e+02	6.968544403990043975e+03
6.290000000000000000e+02	7.005768271322333931e+03
6.300000000000000000e+02	7.041951250430888649e+03
6.310000000000000000e+02	7.077075194807944172e+03
6.320000000000000000e+02	7.111122426469931270e+03
6.330000000000000000e+02	7.144075750771276034e+03
6.340000000000000000e+02	7.175918470864380652e+03
6.350000000000000000e+02	7.206634401788770447e+03
6.360000000000000000e+02	7.236207884172798913e+03
6.370000000000000000e+02	7.264623797531648961e+03
6.380000000000000000e+02	7.291867573145871575e+03
6.390000000000000000e+02	7.317925206505067763e+03
6.400000000000000000e+02	7.342783269301878136e+03
6.410000000000000000e+02	7.366428920961882795e+03
6.420000000000000000e+02	7.388849919695564495e+03
6.430000000000000000e+02	7.410034633059015505e+03
6.440000000000000000e+02	7.429972048010645267e+03
6.450000000000000000e+02	7.448651780451703416e+03
6.460000000000000000e+02	7.466064084239069416e+03
6.470000000000000000e+02	7.482199859659344838e+03
6.480000000000000000e+02	7.497050661353930991e+03
6.490000000000000000e+02	7.510608705685448513e+03
6.500000000000000000e+02	7.522866877536481297e+03
6.510000000000000000e+02	7.533818736532348339e+03
6.520000000000000000e+02	7.543458522680280112e+03
6.530000000000000000e+02	7.551781161418080956e+03
6.540000000000000000e+02	7.558782268066091092e+03
6.550000000000000000e+02	7.564458151676980378e+03
6.560000000000000000e+02	7.568805818278632614e+03
6.570000000000000000e+02	7.571822973506142262e+03
6.580000000000000000e+02	7.573508024619675780e+03
6.590000000000000000e+02	7.573860081905726474e+03
6.600000000000000000e+02	7.572878959460013903e+03
6.610000000000000000e+02	7.570565175351096514e+03
6.620000000000000000e+02	7.566919951164458325e+03
6.630000000000000000e+02	7.561945210927656262e+03
6.640000000000000000e+02	7.555643579417857836e+03
6.650000000000000000e+02	7.548018379853823717e+03
6.660000000000000000e+02	7.539073630975202832e+03
6.670000000000000000e+02	7.528814043512724311e+03
6.680000000000000000e+02	7.517245016053626387e+03
6.690000000000000000e+02	7.504372630307400868e+03
6.700000000000000000e+02	7.490203645777669408e+03
6.710000000000000000e+02	7.474745493846727186e+03
6.720000000000000000e+02	7.458006271279985413e+03
6.730000000000000000e+02	7.439994733158288000e+03
6.740000000000000000e+02	7.420720285246715321e+03
6.750000000000000000e+02	7.400192975809199197e+03
6.760000000000000000e+02	7.378423486878909898e+03
6.770000000000000000e+02	7.355423124995042599e+03
6.780000000000000000e+02	7.331203811417245561e+03
6.790000000000000000e+02	7.305778071829538931e+03
6.800000000000000000e+02	7.279159025546171506e+03
6.810000000000000000e+02	7.251360374232442155e+03
6.820000000000000000e+02	7.222396390154059191e+03
6.830000000000000000e+02	7.192281903969121231e+03
6.840000000000000000e+02	7.161032292077360580e+03
6.850000000000000000e+02	7.128663463541738565e+03
6.860000000000000000e+02	7.095191846597944277e+03
6.870000000000000000e+02	7.060634374767826557e+03
6.880000000000000000e+02	7.025008472593159240e+03
6.890000000000000000e+02	6.988332041006573490e+03
6.900000000000000000e+02	6.950623442356800297e+03
6.910000000000000000e+02	6.911901485105790016e+03
6.920000000000000000e+02	6.872185408215488678e+03
6.930000000000000000e+02	6.831494865242420929e+03
6.940000000000000000e+02	6.789849908158453218e+03
6.950000000000000000e+02	6.747270970916331862e+03
6.960000000000000000e+02	6.703778852778819783e+03
6.970000000000000000e+02	6.659394701430433088e+03
6.980000000000000000e+02	6.614139995890891441e+03
6.990000000000000000e+02	6.568036529249585328e+03
7.000000000000000000e+02	6.521106391240369703e+03
7.010000000000000000e+02	6.473371950676154484e+03
7.020000000000000000e+02	6.424855837762713236e+03
7.030000000000000000e+02	6.375580926311215990e+03
7.040000000000000000e+02	6.325570315868910257e+03
7.050000000000000000e+02	6.274847313787399798e+03
7.060000000000000000e+02	6.223435417247818805e+03
7.070000000000000000e+02	6.171358295262192769e+03
7.080000000000000000e+02	6.118639770670068174e+03
7.090000000000000000e+02	6.065303802149406692e+03
7.100000000000000000e+02	6.011374466260534064e+03
7.110000000000000000e+02	5.956875939541740991e+03
7.120000000000000000e+02	5.901832480674910585e+03
7.130000000000000000e+02	5.846268412739304040e+03
7.140000000000000000e+02	5.790208105571347005e+03
7.150000000000000000e+02	5.733675958248000825e+03
7.160000000000000000e+02	5.676696381710944479e+03
7.170000000000000000e+02	5.619293781548482912e+03
7.180000000000000000e+02	5.561492540951750016e+03
7.190000000000000000e+02	5.503317003861364356e+03
7.200000000000000000e+02	5.444791458320322818e+03
7.210000000000000000e+02	5.385940120048513563e+03
7.220000000000000000e+02	5.326787116253764907e+03
7.230000000000000000e+02	5.267356469693928375e+03
7.240000000000000000e+02	5.207672083004035812e+03
7.250000000000000000e+02	5.147757723302044724e+03
7.260000000000000000e+02	5.087637007086267658e+03
7.270000000000000000e+02	5.027333385437013931e+03
7.280000000000000000e+02	4.966870129534484477e+03
7.290000000000000000e+02	4.906270316504447692e+03
7.300000000000000000e+02	4.845556815602632923e+03
7.310000000000000000e+02	4.784752274748320815e+03
7.320000000000000000e+02	4.723879107416952138e+03
7.330000000000000000e+02	4.662959479901100167e+03
7.340000000000000000e+02	4.602015298948555028e+03
7.350000000000000000e+02	4.541068199785662728e+03
7.360000000000000000e+02	4.480139534533549522e+03
7.370000000000000000e+02	4.419250361024239282e+03
7.380000000000000000e+02	4.358421432023083980e+03
7.390000000000000000e+02	4.297673184863388997e+03
7.400000000000000000e+02	4.237025731498480127e+03
7.410000000000000000e+02	4.176498848975908004e+03
7.420000000000000000e+02	4.116111970337895400e+03
7.430000000000000000e+02	4.055884175951556244e+03
7.440000000000000000e+02	3.995834185271834485e+03
7.450000000000000000e+02	3.935980349039535213e+03
7.460000000000000000e+02	3.876340641916280219e+03
7.470000000000000000e+02	3.816932655557615817e+03
7.480000000000000000e+02	3.757773592124985043e+03
7.490000000000000000e+02	3.698880258236716145e+03
7.500000000000000000e+02	3.640269059357621700e+03
7.510000000000000000e+02	3.581955994626312986e+03
7.520000000000000000e+02	3.523956652118764850e+03
7.530000000000000000e+02	3.466286204546205227e+03
7.540000000000000000e+02	3.408959405384854108e+03
7.550000000000000000e+02	3.351990585434602508e+03
7.560000000000000000e+02	3.295393649803183052e+03
7.570000000000000000e+02	3.239182075311989138e+03
7.580000000000000000e+02	3.183368908319182083e+03
7.590000000000000000e+02	3.127966762955344620e+03
7.600000000000000000e+02	3.072987819766472967e+03
7.610000000000000000e+02	3.018443824758728624e+03
7.620000000000000000e+02	2.964346088838938158e+03
7.630000000000000000e+02	2.910705487644488130e+03
7.640000000000000000e+02	2.857532461755871282e+03
7.650000000000000000e+02	2.804837017284814465e+03
7.660000000000000000e+02	2.752628726830560481e+03
7.670000000000000000e+02	2.700916730796603588e+03
7.680000000000000000e+02	2.649709739059821459e+03
7.690000000000000000e+02	2.599016032983741297e+03
7.700000000000000000e+02	2.548843467767317634e+03
7.710000000000000000e+02	2.499199475120457464e+03
7.720000000000000000e+02	2.450091066257201419e+03
7.730000000000000000e+02	2.401524835197327320e+03
7.740000000000000000e+02	2.353506962366898733e+03
7.750000000000000000e+02	2.306043218488135608e+03
7.760000000000000000e+02	2.259138968748785373e+03
7.770000000000000000e+02	2.212799177241078269e+03
7.780000000000000000e+02	2.167028411660152869e+03
7.790000000000000000e+02	2.121830848251797761e+03
7.800000000000000000e+02	2.077210276999203870e+03
7.810000000000000000e+02	2.033170107038369679e+03
7.820000000000000000e+02	1.989713372291735141e+03
7.830000000000000000e+02	1.946842737309567383e+03
7.840000000000000000e+02	1.904560503308581474e+03
7.850000000000000000e+02	1.862868614397295232e+03
7.860000000000000000e+02	1.821768663977564756e+03
7.870000000000000000e+02	1.781261901311809424e+03
7.880000000000000000e+02	1.741349238245430570e+03
7.890000000000000000e+02	1.702031256073981240e+03
7.900000000000000000e+02	1.663308212544701746e+03
7.910000000000000000e+02	1.625180048982095514e+03
7.920000000000000000e+02	1.587646397527306362e+03
7.930000000000000000e+02	1.550706588481153631e+03
7.940000000000000000e+02	1.514359657740784996e+03
7.950000000000000000e+02	1.478604354320011453e+03
7.960000000000000000e+02	1.443439147943548278e+03
7.970000000000000000e+02	1.408862236705485202e+03
7.980000000000000000e+02	1.374871554782496560e+03
7.990000000000000000e+02	1.341464780192420449e+03
8.000000000000000000e+02	1.308639342589048510e+03
8.010000000000000000e+02	1.276392431084101418e+03
8.020000000000000000e+02	1.244721002087584566e+03
8.030000000000000000e+02	1.213621787157888775e+03
8.040000000000000000e+02	1.183091300853208850e+03
8.050000000000000000e+02	1.153125848576066119e+03
8.060000000000000000e+02	1.123721534402919588e+03
8.070000000000000000e+02	1.094874268891079964e+03
8.080000000000000000e+02	1.066579776855363434e+03
8.090000000000000000e+02	1.038833605107150333e+03
8.100000000000000000e+02	1.011631130148743068e+03
8.110000000000000000e+02	9.849675658161611409e+02
8.120000000000000000e+02	9.588379708637479553e+02
8.130000000000000000e+02	9.332372564842119118e+02
8.140000000000000000e+02	9.081601937579637251e+02
8.150000000000000000e+02	8.836014210258645107e+02
8.160000000000000000e+02	8.595554511797490704e+02
8.170000000000000000e+02	8.360166788653413050e+02
8.180000000000000000e+02	8.129793875924203803e+02
8.190000000000000000e+02	7.904377567473635509e+02
8.200000000000000000e+02	7.683858685034316522e+02
8.210000000000000000e+02	7.468177146244169080e+02
8.220000000000000000e+02	7.257272031575322444e+02
8.230000000000000000e+02	7.051081650116514083e+02
8.240000000000000000e+02	6.849543604172828282e+02
8.250000000000000000e+02	6.652594852648777533e+02
8.260000000000000000e+02	6.460171773183451478e+02
8.270000000000000000e+02	6.272210223008613639e+02
8.280000000000000000e+02	6.088645598503193241e+02
8.290000000000000000e+02	5.909412893419872717e+02
8.300000000000000000e+02	5.734446755761817940e+02
8.310000000000000000e+02	5.563681543289875435e+02
8.320000000000000000e+02	5.397051377642825400e+02
8.330000000000000000e+02	5.234490197055371254e+02
8.340000000000000000e+02	5.075931807660903701e+02
8.350000000000000000e+02	4.921309933367951430e+02
8.360000000000000000e+02	4.770558264301463396e+02
8.370000000000000000e+02	4.623610503801995719e+02
8.380000000000000000e+02	4.480400413977868652e+02
8.390000000000000000e+02	4.340861859807236556e+02
8.400000000000000000e+02	4.204928851788908446e+02
8.410000000000000000e+02	4.072535587142486406e+02
8.420000000000000000e+02	3.943616489560232026e+02
8.430000000000000000e+02	3.818106247514623419e+02
8.440000000000000000e+02	3.695939851127328097e+02
8.450000000000000000e+02	3.577052627606751685e+02
8.460000000000000000e+02	3.461380275262939108e+02
8.470000000000000000e+02	3.348858896109975376e+02
8.480000000000000000e+02	3.239425027067463247e+02
8.490000000000000000e+02	3.133015669773939180e+02
8.500000000000000000e+02	3.029568319026412837e+02
8.510000000000000000e+02	2.929020989861343196e+02
8.520000000000000000e+02	2.831312243293590996e+02
8.530000000000000000e+02	2.736381210730881435e+02
8.540000000000000000e+02	2.644167617082416655e+02
8.550000000000000000e+02	2.554611802581185316e+02
8.560000000000000000e+02	2.467654743340441428e+02
8.570000000000000000e+02	2.383238070665659336e+02
8.580000000000000000e+02	2.301304089144087470e+02
8.590000000000000000e+02	2.221795793534696202e+02
8.600000000000000000e+02	2.144656884482069188e+02
8.610000000000000000e+02	2.069831783078315084e+02
8.620000000000000000e+02	1.997265644297713720e+02
8.630000000000000000e+02	1.926904369329295719e+02
8.640000000000000000e+02	1.858694616832981694e+02
8.650000000000000000e+02	1.792583813145358818e+02
8.660000000000000000e+02	1.728520161461512714e+02
8.670000000000000000e+02	1.666452650019614339e+02
8.680000000000000000e+02	1.606331059315261314e+02
8.690000000000000000e+02	1.548105968372754830e+02
8.700000000000000000e+02	1.491728760100658917e+02
8.710000000000000000e+02	1.437151625759155138e+02
8.720000000000000000e+02	1.384327568566715456e+02
8.730000000000000000e+02	1.333210406473716603e+02
8.740000000000000000e+02	1.283754774130603948e+02
8.750000000000000000e+02	1.235916124078138978e+02
8.760000000000000000e+02	1.189650727187253381e+02
8.770000000000000000e+02	1.144915672375857696e+02
8.780000000000000000e+02	1.101668865629866474e+02
8.790000000000000000e+02	1.059869028355469709e+02
8.800000000000000000e+02	1.019475695089533787e+02
8.810000000000000000e+02	9.804492105947180391e+01
8.820000000000000000e+02	9.427507263656806913e+01
8.830000000000000000e+02	9.063421965724199936e+01
8.840000000000000000e+02	8.711863734665121228e+01
8.850000000000000000e+02	8.372468022756407890e+01
8.860000000000000000e+02	8.044878156114617695e+01
8.870000000000000000e+02	7.728745274154927358e+01
8.880000000000000000e+02	7.423728264672566013e+01
8.890000000000000000e+02	7.129493694785541891e+01
8.900000000000000000e+02	6.845715737972643922e+01
8.910000000000000000e+02	6.572076097436277564e+01
8.920000000000000000e+02	6.308263926015221301e+01
8.930000000000000000e+02	6.053975742867417154e+01
8.940000000000000000e+02	5.808915347138069052e+01
8.950000000000000000e+02	5.572793728823506854e+01
8.960000000000000000e+02	5.345328977035922691e+01
8.970000000000000000e+02	5.126246185869145933e+01
8.980000000000000000e+02	4.915277358060370716e+01
8.990000000000000000e+02	4.712161306637342051e+01
9.000000000000000000e+02	4.516643554735350108e+01
9.010000000000000000e+02	4.328476233762919634e+01
9.020000000000000000e+02	4.147417980089731770e+01
9.030000000000000000e+02	3.973233830424904056e+01
9.040000000000000000e+02	3.805695116048364213e+01
9.050000000000000000e+02	3.644579356052576458e+01
9.060000000000000000e+02	3.489670149746613248e+01
9.070000000000000000e+02	3.340757068369018867e+01
9.080000000000000000e+02	3.197635546250703698e+01
9.090000000000000000e+02	3.060106771563665262e+01
9.100000000000000000e+02	2.927977576786114255e+01
9.110000000000000000e+02	2.801060329009355954e+01
9.120000000000000000e+02	2.679172820206515482e+01
9.130000000000000000e+02	2.562138157578122488e+01
9.140000000000000000e+02	2.449784654084529834e+01
9.150000000000000000e+02	2.341945719270023574e+01
9.160000000000000000e+02	2.238459750478732957e+01
9.170000000000000000e+02	2.139170024557399330e+01
9.180000000000000000e+02	2.043924590135483399e+01
9.190000000000000000e+02	1.952576160568264996e+01
9.200000000000000000e+02	1.864982007624105975e+01
9.210000000000000000e+02	1.781003855992429763e+01
9.220000000000000000e+02	1.700507778684701421e+01
9.230000000000000000e+02	1.623364093396251207e+01
9.240000000000000000e+02	1.549447259892691520e+01
9.250000000000000000e+02	1.478635778480456509e+01
9.260000000000000000e+02	1.410812089617119902e+01
9.270000000000000000e+02	1.345862474713112888e+01
9.280000000000000000e+02	1.283676958172779159e+01
9.290000000000000000e+02	1.224149210718967851e+01
9.300000000000000000e+02	1.167176454041792155e+01
9.310000000000000000e+02	1.112659366808739492e+01
9.320000000000000000e+02	1.060501992069923460e+01
9.330000000000000000e+02	1.010611646089052051e+01
9.340000000000000000e+02	9.628988286275292907e+00
9.350000000000000000e+02	9.172771347060734826e+00
9.360000000000000000e+02	8.736631678653409949e+00
9.370000000000000000e+02	8.319764549441748258e+00
9.380000000000000000e+02	7.921393623914585902e+00
9.390000000000000000e+02	7.540770141248981595e+00
9.400000000000000000e+02	7.177172109475860040e+00
9.410000000000000000e+02	6.829903515308140882e+00
9.420000000000000000e+02	6.498293549692932380e+00
9.430000000000000000e+02	6.181695849127709863e+00
9.440000000000000000e+02	5.879487752759342101e+00
9.450000000000000000e+02	5.591069575265117386e+00
9.460000000000000000e+02	5.315863895495835045e+00
9.470000000000000000e+02	5.053314860843231671e+00
9.480000000000000000e+02	4.802887507276757617e+00
9.490000000000000000e+02	4.564067094978797812e+00
9.500000000000000000e+02	4.336358459492072548e+00
9.510000000000000000e+02	4.119285378278561005e+00
9.520000000000000000e+02	3.912389952575939578e+00
9.530000000000000000e+02	3.715232004424620538e+00
9.540000000000000000e+02	3.527388488726712623e+00
9.550000000000000000e+02	3.348452920187190873e+00
9.560000000000000000e+02	3.178034814977039879e+00
9.570000000000000000e+02	3.015759146948741254e+00
9.580000000000000000e+02	2.861265818225483759e+00
9.590000000000000000e+02	2.714209143977283745e+00
9.600000000000000000e+02	2.574257351189811249e+00
9.610000000000000000e+02	2.441092091224712490e+00
9.620000000000000000e+02	2.314407965964071501e+00
9.630000000000000000e+02	2.193912067326077686e+00
9.640000000000000000e+02	2.079323529933755577e+00
9.650000000000000000e+02	1.970373096714285177e+00
9.660000000000000000e+02	1.866802697202476047e+00
9.670000000000000000e+02	1.768365038318397975e+00
9.680000000000000000e+02	1.674823207386432644e+00
9.690000000000000000e+02	1.585950287160343475e+00
9.700000000000000000e+02	1.501528982617144736e+00
9.710000000000000000e+02	1.421351259280795531e+00
9.720000000000000000e+02	1.345217992835704868e+00
9.730000000000000000e+02	1.272938629789175380e+00
9.740000000000000000e+02	1.204330858941575766e+00
9.750000000000000000e+02	1.139220293422887442e+00
9.760000000000000000e+02	1.077440163054642408e+00
9.770000000000000000e+02	1.018831016796805322e+00
9.780000000000000000e+02	9.632404350400541881e-01
9.790000000000000000e+02	9.105227515051196319e-01
9.800000000000000000e+02	8.605387845122104418e-01
9.810000000000000000e+02	8.131555773853039737e-01
9.820000000000000000e+02	7.682461477579436426e-01
9.830000000000000000e+02	7.256892455493331173e-01
9.840000000000000000e+02	6.853691193818348681e-01
9.850000000000000000e+02	6.471752912134922653e-01
9.860000000000000000e+02	6.110023389618859380e-01
9.870000000000000000e+02	5.767496868984485214e-01
9.880000000000000000e+02	5.443214035953861663e-01
9.890000000000000000e+02	5.136260072104362751e-01
9.900000000000000000e+02	4.845762778979392782e-01
9.910000000000000000e+02	4.570890771380561324e-01
9.920000000000000000e+02	4.310851737793768290e-01
9.930000000000000000e+02	4.064890765937326789e-01
9.940000000000000000e+02	3.832288731455736897e-01
9.950000000000000000e+02	3.612360747820061446e-01
9.960000000000000000e+02	3.404454675532396779e-01
9.970000000000000000e+02	3.207949688770217467e-01
9.980000000000000000e+02	3.022254897644266469e-01
9.990000000000000000e+02	2.846808024281973770e-01
1.000000000000000000e+03	2.681074130987302073e-01
