4.410000000000000000e+02	3.968237696607116050e+01
4.420000000000000000e+02	4.165460183326015198e+01
4.430000000000000000e+02	4.371553736334151807e+01
4.440000000000000000e+02	4.586867337754743801e+01
4.450000000000000000e+02	4.811761163101252237e+01
4.460000000000000000e+02	5.046606818333406608e+01
4.470000000000000000e+02	5.291787576097771506e+01
4.480000000000000000e+02	5.547698610803735875e+01
4.490000000000000000e+02	5.814747232170702773e+01
4.500000000000000000e+02	6.093353116866501296e+01
4.510000000000000000e+02	6.383948537841953197e+01
4.520000000000000000e+02	6.686978590950671730e+01
4.530000000000000000e+02	7.002901418427705948e+01
4.540000000000000000e+02	7.332188428785076439e+01
4.550000000000000000e+02	7.675324512666651344e+01
4.560000000000000000e+02	8.032808254189222907e+01
4.570000000000000000e+02	8.405152137281451985e+01
4.580000000000000000e+02	8.792882746516862369e+01
4.590000000000000000e+02	9.196540961921978408e+01
4.600000000000000000e+02	9.616682147225928645e+01
4.610000000000000000e+02	1.005387633100297649e+02
4.620000000000000000e+02	1.050870838014503192e+02
4.630000000000000000e+02	1.098177816508739824e+02
4.640000000000000000e+02	1.147370071619674690e+02
4.650000000000000000e+02	1.198510637071770901e+02
4.660000000000000000e+02	1.251664090966083336e+02
4.670000000000000000e+02	1.306896568400291869e+02
4.680000000000000000e+02	1.364275772955857065e+02
4.690000000000000000e+02	1.423870986987055289e+02
4.700000000000000000e+02	1.485753080645611703e+02
4.710000000000000000e+02	1.549994519573648120e+02
4.720000000000000000e+02	1.616669371196728662e+02
4.730000000000000000e+02	1.685853309547950971e+02
4.740000000000000000e+02	1.757623618553326992e+02
4.750000000000000000e+02	1.832059193707915483e+02
4.760000000000000000e+02	1.909240542071713094e+02
4.770000000000000000e+02	1.989249780513781047e+02
4.780000000000000000e+02	2.072170632132680623e+02
4.790000000000000000e+02	2.158088420781116668e+02
4.800000000000000000e+02	2.247090063622455034e+02
4.810000000000000000e+02	2.339264061646917980e+02
4.820000000000000000e+02	2.434700488075910698e+02
4.830000000000000000e+02	2.533490974587954270e+02
4.840000000000000000e+02	2.635728695333213523e+02
4.850000000000000000e+02	2.741508348918098363e+02
4.860000000000000000e+02	2.850926139822897767e+02
4.870000000000000000e+02	2.964079767802039669e+02
4.880000000000000000e+02	3.081068470025623469e+02
4.890000000000000000e+02	3.201993331352050518e+02
4.900000000000000000e+02	3.326958818308502259e+02
4.910000000000000000e+02	3.456079441422600098e+02
4.920000000000000000e+02	3.589506211621024931e+02
4.930000000000000000e+02	3.727523388134703737e+02
4.940000000000000000e+02	3.870874360597209716e+02
4.950000000000000000e+02	4.021771005936134316e+02
4.960000000000000000e+02	4.186760659172705346e+02
4.970000000000000000e+02	4.384166494474294495e+02
4.980000000000000000e+02	4.661640895278608241e+02
4.990000000000000000e+02	5.133539683464757672e+02
5.000000000000000000e+02	6.051952403516717141e+02
5.010000000000000000e+02	7.925011304233853480e+02
5.020000000000000000e+02	1.168367389121308406e+03
5.030000000000000000e+02	1.886473390250539069e+03
5.040000000000000000e+02	3.172201493436616147e+03
5.050000000000000000e+02	5.311818289498460217e+03
5.060000000000000000e+02	8.603219269715278642e+03
5.070000000000000000e+02	1.326012037616203816e+04
5.080000000000000000e+02	1.928299426660029712e+04
5.090000000000000000e+02	2.633890028948070540e+04
5.100000000000000000e+02	3.371276609491214185e+04
5.110000000000000000e+02	4.038522173086388648e+04
5.120000000000000000e+02	4.524807679356777953e+04
5.130000000000000000e+02	4.740231885335229163e+04
5.140000000000000000e+02	4.643030015617865865e+04
5.150000000000000000e+02	4.252928951103699364e+04
5.160000000000000000e+02	3.644789045655300288e+04
5.170000000000000000e+02	2.925339573011988614e+04
5.180000000000000000e+02	2.202912482252749396e+04
5.190000000000000000e+02	1.561870136971771171e+04
5.200000000000000000e+02	1.049561846363007862e+04
5.210000000000000000e+02	6.770297558420577843e+03
5.220000000000000000e+02	4.291657757279932412e+03
5.230000000000000000e+02	2.779282704638659197e+03
5.240000000000000000e+02	1.934480084125964368e+03
5.250000000000000000e+02	1.506557601242583360e+03
5.260000000000000000e+02	1.316014617215629187e+03
5.270000000000000000e+02	1.249523216639774319e+03
5.280000000000000000e+02	1.242900315651639403e+03
5.290000000000000000e+02	1.263203927565969707e+03
5.300000000000000000e+02	1.295010889570816744e+03
5.310000000000000000e+02	1.331705546643015396e+03
5.320000000000000000e+02	1.370681438418076141e+03
5.330000000000000000e+02	1.410995298725514203e+03
5.340000000000000000e+02	1.452335474089518584e+03
5.350000000000000000e+02	1.494610526666748456e+03
5.360000000000000000e+02	1.537799571817416108e+03
5.370000000000000000e+02	1.581902400099680563e+03
5.380000000000000000e+02	1.626924195491949149e+03
5.390000000000000000e+02	1.672871214116432384e+03
5.400000000000000000e+02	1.719749647225782383e+03
5.410000000000000000e+02	1.767565334834554051e+03
5.420000000000000000e+02	1.816323688756194770e+03
5.430000000000000000e+02	1.866029663237053001e+03
5.440000000000000000e+02	1.916687735615210613e+03
5.450000000000000000e+02	1.968301888972283450e+03
5.460000000000000000e+02	2.020875595207433207e+03
5.470000000000000000e+02	2.074411798265633024e+03
5.480000000000000000e+02	2.128912897494995832e+03
5.490000000000000000e+02	2.184380731150157317e+03
5.500000000000000000e+02	2.240816560065758949e+03
5.510000000000000000e+02	2.298221051525475559e+03
5.520000000000000000e+02	2.356594263352522830e+03
5.530000000000000000e+02	2.415935628247955719e+03
5.540000000000000000e+02	2.476243938403357788e+03
5.550000000000000000e+02	2.537517330414801563e+03
5.560000000000000000e+02	2.599753270525166954e+03
5.570000000000000000e+02	2.662948540222101201e+03
5.580000000000000000e+02	2.727099222219042076e+03
5.590000000000000000e+02	2.792200686846830195e+03
5.600000000000000000e+02	2.858247578883467668e+03
5.610000000000000000e+02	2.925233804849617172e+03
5.620000000000000000e+02	2.993152520797360467e+03
5.630000000000000000e+02	3.061996120619689918e+03
5.640000000000000000e+02	3.131756224908012882e+03
5.650000000000000000e+02	3.202423670384812340e+03
5.660000000000000000e+02	3.273988499938324821e+03
5.670000000000000000e+02	3.346439953285839692e+03
5.680000000000000000e+02	3.419766458291848721e+03
5.690000000000000000e+02	3.493955622966902411e+03
5.700000000000000000e+02	3.568994228172548446e+03
5.710000000000000000e+02	3.644868221057281517e+03
5.720000000000000000e+02	3.721562709247783459e+03
5.730000000000000000e+02	3.799061955819211562e+03
5.740000000000000000e+02	3.877349375067575693e+03
5.750000000000000000e+02	3.956407529106535549e+03
5.760000000000000000e+02	4.036218125310170308e+03
5.770000000000000000e+02	4.116762014622466268e+03
5.780000000000000000e+02	4.198019190753356270e+03
5.790000000000000000e+02	4.279968790280249777e+03
5.800000000000000000e+02	4.362589093672973831e+03
5.810000000000000000e+02	4.445857527259028757e+03
5.820000000000000000e+02	4.529750666144991555e+03
5.830000000000000000e+02	4.614244238108741229e+03
5.840000000000000000e+02	4.699313128476017482e+03
5.850000000000000000e+02	4.784931385993603726e+03
5.860000000000000000e+02	4.871072229710143802e+03
5.870000000000000000e+02	4.957708056874306749e+03
5.880000000000000000e+02	5.044810451858638771e+03
5.890000000000000000e+02	5.132350196116080951e+03
5.900000000000000000e+02	5.220297279174674259e+03
5.910000000000000000e+02	5.308620910674531842e+03
5.920000000000000000e+02	5.397289533449649753e+03
5.930000000000000000e+02	5.486270837655612922e+03
5.940000000000000000e+02	5.575531775942675267e+03
5.950000000000000000e+02	5.665038579672157539e+03
5.960000000000000000e+02	5.754756776172459467e+03
5.970000000000000000e+02	5.844651207029373836e+03
5.980000000000000000e+02	5.934686047403782140e+03
5.990000000000000000e+02	6.024824826368097092e+03
6.000000000000000000e+02	6.115030448251218331e+03
6.010000000000000000e+02	6.205265214980030578e+03
6.020000000000000000e+02	6.295490849403862740e+03
6.030000000000000000e+02	6.385668519586566617e+03
6.040000000000000000e+02	6.475758864049272233e+03
6.050000000000000000e+02	6.565722017945147854e+03
6.060000000000000000e+02	6.655517640145832047e+03
6.070000000000000000e+02	6.745104941217585292e+03
6.080000000000000000e+02	6.834442712263506110e+03
6.090000000000000000e+02	6.923489354606596862e+03
6.100000000000000000e+02	7.012202910286790939e+03
6.110000000000000000e+02	7.100541093343550529e+03
6.120000000000000000e+02	7.188461321854007110e+03
6.130000000000000000e+02	7.275920750695187053e+03
6.140000000000000000e+02	7.362876304997297666e+03
6.150000000000000000e+02	7.449284714253647508e+03
6.160000000000000000e+02	7.535102547051364127e+03
6.170000000000000000e+02	7.620286246385694540e+03
6.180000000000000000e+02	7.704792165519356786e+03
6.190000000000000000e+02	7.788576604347169450e+03
6.200000000000000000e+02	7.871595846224960042e+03
6.210000000000000000e+02	7.953806195220574409e+03
6.220000000000000000e+02	8.035164013743778924e+03
6.230000000000000000e+02	8.115625760510725740e+03
6.240000000000000000e+02	8.195148028797777442e+03
6.250000000000000000e+02	8.273687584938503278e+03
6.260000000000000000e+02	8.351201407016871599e+03
6.270000000000000000e+02	8.427646723708921854e+03
6.280000000000000000e+02	8.502981053224448260e+03
6.290000000000000000e+02	8.577162242299697027e+03
6.300000000000000000e+02	8.650148505191476943e+03
6.310000000000000000e+02	8.721898462622697480e+03
6.320000000000000000e+02	8.792371180628930233e+03
6.330000000000000000e+02	8.861526209255327558e+03
6.340000000000000000e+02	8.929323621053019451e+03
6.350000000000000000e+02	8.995724049324015141e+03
6.360000000000000000e+02	9.060688726063561262e+03
6.370000000000000000e+02	9.124179519549034012e+03
6.380000000000000000e+02	9.186158971524491790e+03
6.390000000000000000e+02	9.246590333930362249e+03
6.400000000000000000e+02	9.305437605127950519e+03
6.410000000000000000e+02	9.362665565568930106e+03
6.420000000000000000e+02	9.418239812860458187e+03
6.430000000000000000e+02	9.472126796177130018e+03
6.440000000000000000e+02	9.524293849971672898e+03
6.450000000000000000e+02	9.574709226937022322e+03
6.460000000000000000e+02	9.623342130173290570e+03
6.470000000000000000e+02	9.670162744514034785e+03
6.480000000000000000e+02	9.715142266967250180e+03
6.490000000000000000e+02	9.758252936227647297e+03
6.500000000000000000e+02	9.799468061217859940e+03
6.510000000000000000e+02	9.838762048617556502e+03
6.520000000000000000e+02	9.876110429340718838e+03
6.530000000000000000e+02	9.911489883922757144e+03
6.540000000000000000e+02	9.944878266780575359e+03
6.550000000000000000e+02	9.976254629310309610e+03
6.560000000000000000e+02	1.000559924178897018e+04
6.570000000000000000e+02	1.003289361404796546e+04
6.580000000000000000e+02	1.005812051488819088e+04
6.590000000000000000e+02	1.008126399020811368e+04
6.600000000000000000e+02	1.010230937981819443e+04
6.610000000000000000e+02	1.012124333291680887e+04
6.620000000000000000e+02	1.013805382220483443e+04
6.630000000000000000e+02	1.015273015661795398e+04
6.640000000000000000e+02	1.016526299265788293e+04
6.650000000000000000e+02	1.017564434430564870e+04
6.660000000000000000e+02	1.018386759150222497e+04
6.670000000000000000e+02	1.018992748718390794e+04
6.680000000000000000e+02	1.019382016286196813e+04
6.690000000000000000e+02	1.019554313273827393e+04
6.700000000000000000e+02	1.019509529635074978e+04
6.710000000000000000e+02	1.019247693974473441e+04
6.720000000000000000e+02	1.018768973516850201e+04
6.730000000000000000e+02	1.018073673929337747e+04
6.740000000000000000e+02	1.017162238996111228e+04
6.750000000000000000e+02	1.016035250146337785e+04
6.760000000000000000e+02	1.014693425836036840e+04
6.770000000000000000e+02	1.013137620784776664e+04
6.780000000000000000e+02	1.011368825068336992e+04
6.790000000000000000e+02	1.009388163068689755e+04
6.800000000000000000e+02	1.007196892282855515e+04
6.810000000000000000e+02	1.004796401992401843e+04
6.820000000000000000e+02	1.002188211795555435e+04
6.830000000000000000e+02	9.993739700040978278e+03
6.840000000000000000e+02	9.963554519074124983e+03
6.850000000000000000e+02	9.931345579062426623e+03
6.860000000000000000e+02	9.897133115189071759e+03
6.870000000000000000e+02	9.860938572629005648e+03
6.880000000000000000e+02	9.822784584149821967e+03
6.890000000000000000e+02	9.782694946530295056e+03
6.900000000000000000e+02	9.740694595830953403e+03
6.910000000000000000e+02	9.696809581552624877e+03
6.920000000000000000e+02	9.651067039720472167e+03
6.930000000000000000e+02	9.603495164932424814e+03
6.940000000000000000e+02	9.554123181412269332e+03
6.950000000000000000e+02	9.502981313109021357e+03
6.960000000000000000e+02	9.450100752885344264e+03
6.970000000000000000e+02	9.395513630838971949e+03
6.980000000000000000e+02	9.339252981802112117e+03
6.990000000000000000e+02	9.281352712064830484e+03
7.000000000000000000e+02	9.221847565369234871e+03
7.010000000000000000e+02	9.160773088222182196e+03
7.020000000000000000e+02	9.098165594574866191e+03
7.030000000000000000e+02	9.034062129918313076e+03
7.040000000000000000e+02	8.968500434844394476e+03
7.050000000000000000e+02	8.901518908122348876e+03
7.060000000000000000e+02	8.833156569341279464e+03
7.070000000000000000e+02	8.763453021169238127e+03
7.080000000000000000e+02	8.692448411279881839e+03
7.090000000000000000e+02	8.620183393997618623e+03
7.100000000000000000e+02	8.546699091712305744e+03
7.110000000000000000e+02	8.472037056114437291e+03
7.120000000000000000e+02	8.396239229301623709e+03
7.130000000000000000e+02	8.319347904806925726e+03
7.140000000000000000e+02	8.241405688599284986e+03
7.150000000000000000e+02	8.162455460105902603e+03
7.160000000000000000e+02	8.082540333305907552e+03
7.170000000000000000e+02	8.001703617944110192e+03
7.180000000000000000e+02	7.919988780913016853e+03
7.190000000000000000e+02	7.837439407850509269e+03
7.200000000000000000e+02	7.754099164999863206e+03
7.210000000000000000e+02	7.670011761377886614e+03
7.220000000000000000e+02	7.585220911296032682e+03
7.230000000000000000e+02	7.499770297278358157e+03
7.240000000000000000e+02	7.413703533419125961e+03
7.250000000000000000e+02	7.327064129221739677e+03
7.260000000000000000e+02	7.239895453959519728e+03
7.270000000000000000e+02	7.152240701597581392e+03
7.280000000000000000e+02	7.064142856313811535e+03
7.290000000000000000e+02	6.975644658655603962e+03
7.300000000000000000e+02	6.886788572367586312e+03
7.310000000000000000e+02	6.797616751924237178e+03
7.320000000000000000e+02	6.708171010799724172e+03
7.330000000000000000e+02	6.618492790505873927e+03
7.340000000000000000e+02	6.528623130427611613e+03
7.350000000000000000e+02	6.438602638483653209e+03
7.360000000000000000e+02	6.348471462638634875e+03
7.370000000000000000e+02	6.258269263291277639e+03
7.380000000000000000e+02	6.168035186561517548e+03
7.390000000000000000e+02	6.077807838497904413e+03
7.400000000000000000e+02	5.987625260224916019e+03
7.410000000000000000e+02	5.897524904048124881e+03
7.420000000000000000e+02	5.807543610533543870e+03
7.430000000000000000e+02	5.717717586575714449e+03
7.440000000000000000e+02	5.628082384467496922e+03
7.450000000000000000e+02	5.538672881982786748e+03
7.460000000000000000e+02	5.449523263481757567e+03
7.470000000000000000e+02	5.360667002046518974e+03
7.480000000000000000e+02	5.272136842653482745e+03
7.490000000000000000e+02	5.183964786387058666e+03
7.500000000000000000e+02	5.096182075697715845e+03
7.510000000000000000e+02	5.008819180705809231e+03
7.520000000000000000e+02	4.921905786551076744e+03
7.530000000000000000e+02	4.835470781786066254e+03
7.540000000000000000e+02	4.749542247810357367e+03
7.550000000000000000e+02	4.664147449340839557e+03
7.560000000000000000e+02	4.579312825911970322e+03
7.570000000000000000e+02	4.495063984398429056e+03
7.580000000000000000e+02	4.411425692551286375e+03
7.590000000000000000e+02	4.328421873537414285e+03
7.600000000000000000e+02	4.246075601470596666e+03
7.610000000000000000e+02	4.164409097921557986e+03
7.620000000000000000e+02	4.083443729392884961e+03
7.630000000000000000e+02	4.003200005743708516e+03
7.640000000000000000e+02	3.923697579547846090e+03
7.650000000000000000e+02	3.844955246368095686e+03
7.660000000000000000e+02	3.766990945928308065e+03
7.670000000000000000e+02	3.689821764163950775e+03
7.680000000000000000e+02	3.613463936130926413e+03
7.690000000000000000e+02	3.537932849751572121e+03
7.700000000000000000e+02	3.463243050375955590e+03
7.710000000000000000e+02	3.389408246135839818e+03
7.720000000000000000e+02	3.316441314067966232e+03
7.730000000000000000e+02	3.244354306982689650e+03
7.740000000000000000e+02	3.173158461053398241e+03
7.750000000000000000e+02	3.102864204101607811e+03
7.760000000000000000e+02	3.033481164552144946e+03
7.770000000000000000e+02	2.965018181032403390e+03
7.780000000000000000e+02	2.897483312589286015e+03
7.790000000000000000e+02	2.830883849497113260e+03
7.800000000000000000e+02	2.765226324629516057e+03
7.810000000000000000e+02	2.700516525368106159e+03
7.820000000000000000e+02	2.636759506020557637e+03
7.830000000000000000e+02	2.573959600720602339e+03
7.840000000000000000e+02	2.512120436782381148e+03
7.850000000000000000e+02	2.451244948481578831e+03
7.860000000000000000e+02	2.391335391235766565e+03
7.870000000000000000e+02	2.332393356156492246e+03
7.880000000000000000e+02	2.274419784945730498e+03
7.890000000000000000e+02	2.217414985109493500e+03
7.900000000000000000e+02	2.161378645461587894e+03
7.910000000000000000e+02	2.106309851890761820e+03
7.920000000000000000e+02	2.052207103364738032e+03
7.930000000000000000e+02	1.999068328144983525e+03
7.940000000000000000e+02	1.946890900186383078e+03
7.950000000000000000e+02	1.895671655696406788e+03
7.960000000000000000e+02	1.845406909828755261e+03
7.970000000000000000e+02	1.796092473486934750e+03
7.980000000000000000e+02	1.747723670213682681e+03
7.990000000000000000e+02	1.700295353142699469e+03
8.000000000000000000e+02	1.653801921989638231e+03
8.010000000000000000e+02	1.608237340059904454e+03
8.020000000000000000e+02	1.563595151251365451e+03
8.030000000000000000e+02	1.519868497030707204e+03
8.040000000000000000e+02	1.477050133362763745e+03
8.050000000000000000e+02	1.435132447572812225e+03
8.060000000000000000e+02	1.394107475122473488e+03
8.070000000000000000e+02	1.353966916280515761e+03
8.080000000000000000e+02	1.314702152670567102e+03
8.090000000000000000e+02	1.276304263678417783e+03
8.100000000000000000e+02	1.238764042702292500e+03
8.110000000000000000e+02	1.202072013230208768e+03
8.120000000000000000e+02	1.166218444729217026e+03
8.130000000000000000e+02	1.131193368332077625e+03
8.140000000000000000e+02	1.096986592307625870e+03
8.150000000000000000e+02	1.063587717301808652e+03
8.160000000000000000e+02	1.030986151337119281e+03
8.170000000000000000e+02	9.991711245588556949e+02
8.180000000000000000e+02	9.681317037173627114e+02
8.190000000000000000e+02	9.378568063761495068e+02
8.200000000000000000e+02	9.083352148364567711e+02
8.210000000000000000e+02	8.795555897695852536e+02
8.220000000000000000e+02	8.515064835489826010e+02
8.230000000000000000e+02	8.241763532747712588e+02
8.240000000000000000e+02	7.975535734841008662e+02
8.250000000000000000e+02	7.716264485413610146e+02
8.260000000000000000e+02	7.463832247029571363e+02
8.270000000000000000e+02	7.218121018520105281e+02
8.280000000000000000e+02	6.979012448989518589e+02
8.290000000000000000e+02	6.746387948446300697e+02
8.300000000000000000e+02	6.520128795031400841e+02
8.310000000000000000e+02	6.300116238821725574e+02
8.320000000000000000e+02	6.086231602192658556e+02
8.330000000000000000e+02	5.878356376728971782e+02
8.340000000000000000e+02	5.676372316678830430e+02
8.350000000000000000e+02	5.480161528951020955e+02
8.360000000000000000e+02	5.289606559660355742e+02
8.370000000000000000e+02	5.104590477231319028e+02
8.380000000000000000e+02	4.924996952074544083e+02
8.390000000000000000e+02	4.750710332855293245e+02
8.400000000000000000e+02	4.581615719377447817e+02
8.410000000000000000e+02	4.417599032110626922e+02
8.420000000000000000e+02	4.258547078391948730e+02
8.430000000000000000e+02	4.104347615337786124e+02
8.440000000000000000e+02	3.954889409504343689e+02
8.450000000000000000e+02	3.810062293339276493e+02
8.460000000000000000e+02	3.669757218469777627e+02
8.470000000000000000e+02	3.533866305875426406e+02
8.480000000000000000e+02	3.402282892997041017e+02
8.490000000000000000e+02	3.274901577835258877e+02
8.500000000000000000e+02	3.151618260095009418e+02
8.510000000000000000e+02	3.032330179434345609e+02
8.520000000000000000e+02	2.916935950878032031e+02
8.530000000000000000e+02	2.805335597458312122e+02
8.540000000000000000e+02	2.697430580146815942e+02
8.550000000000000000e+02	2.593123825143256909e+02
8.560000000000000000e+02	2.492319748587793811e+02
8.570000000000000000e+02	2.394924278765208498e+02
8.580000000000000000e+02	2.300844875870096473e+02
8.590000000000000000e+02	2.209990549403066780e+02
8.600000000000000000e+02	2.122271873268775551e+02
8.610000000000000000e+02	2.037600998647152437e+02
8.620000000000000000e+02	1.955891664709613167e+02
8.630000000000000000e+02	1.877059207252382009e+02
8.640000000000000000e+02	1.801020565319202262e+02
8.650000000000000000e+02	1.727694285885785632e+02
8.660000000000000000e+02	1.657000526678222059e+02
8.670000000000000000e+02	1.588861057197423179e+02
8.680000000000000000e+02	1.523199258021355718e+02
8.690000000000000000e+02	1.459940118456393350e+02
8.700000000000000000e+02	1.399010232608586080e+02
8.710000000000000000e+02	1.340337793945100486e+02
8.720000000000000000e+02	1.283852588415277580e+02
8.730000000000000000e+02	1.229485986200049155e+02
8.740000000000000000e+02	1.177170932157539767e+02
8.750000000000000000e+02	1.126841935031740292e+02
8.760000000000000000e+02	1.078435055490102457e+02
8.770000000000000000e+02	1.031887893054863241e+02
8.780000000000000000e+02	9.871395719916905875e+01
8.790000000000000000e+02	9.441307262180933435e+01
8.800000000000000000e+02	9.028034832927471598e+01
8.810000000000000000e+02	8.631014475455999957e+01
8.820000000000000000e+02	8.249696824072580625e+01
8.830000000000000000e+02	7.883546919947696097e+01
8.840000000000000000e+02	7.532044020095153769e+01
8.850000000000000000e+02	7.194681400014341932e+01
8.860000000000000000e+02	6.870966150523580040e+01
8.870000000000000000e+02	6.560418969297241176e+01
8.880000000000000000e+02	6.262573947604071378e+01
8.890000000000000000e+02	5.976978352728744426e+01
8.900000000000000000e+02	5.703192406543502813e+01
8.910000000000000000e+02	5.440789060680849332e+01
8.920000000000000000e+02	5.189353768742881101e+01
8.930000000000000000e+02	4.948484255967377266e+01
8.940000000000000000e+02	4.717790286754785711e+01
8.950000000000000000e+02	4.496893430445199868e+01
8.960000000000000000e+02	4.285426825718570853e+01
8.970000000000000000e+02	4.083034943976300468e+01
8.980000000000000000e+02	3.889373352046915500e+01
8.990000000000000000e+02	3.704108474543569685e+01
9.000000000000000000e+02	3.526917356186129382e+01
9.010000000000000000e+02	3.357487424385836761e+01
9.020000000000000000e+02	3.195516252376006605e+01
9.030000000000000000e+02	3.040711323157935198e+01
9.040000000000000000e+02	2.892789794517032931e+01
9.050000000000000000e+02	2.751478265350399965e+01
9.060000000000000000e+02	2.616512543533577428e+01
9.070000000000000000e+02	2.487637415540714869e+01
9.080000000000000000e+02	2.364606418019627654e+01
9.090000000000000000e+02	2.247181611510383448e+01
9.100000000000000000e+02	2.135133356483680700e+01
9.110000000000000000e+02	2.028240091863254335e+01
9.120000000000000000e+02	1.926288116184789700e+01
9.130000000000000000e+02	1.829071371532362988e+01
9.140000000000000000e+02	1.736391230382408679e+01
9.150000000000000000e+02	1.648056285474418203e+01
9.160000000000000000e+02	1.563882142817230836e+01
9.170000000000000000e+02	1.483691217929645134e+01
9.180000000000000000e+02	1.407312535404455822e+01
9.190000000000000000e+02	1.334581531875584304e+01
9.200000000000000000e+02	1.265339862459000742e+01
9.210000000000000000e+02	1.199435210729423140e+01
9.220000000000000000e+02	1.136721102286500162e+01
9.230000000000000000e+02	1.077056721956137864e+01
9.240000000000000000e+02	1.020306734665012627e+01
9.250000000000000000e+02	9.663411100190273828e+00
9.260000000000000000e+02	9.150349506093990115e+00
9.270000000000000000e+02	8.662683240635111304e+00
9.280000000000000000e+02	8.199260988512559578e+00
9.290000000000000000e+02	7.758977838516108783e+00
9.300000000000000000e+02	7.340773716784932290e+00
9.310000000000000000e+02	6.943631857594896317e+00
9.320000000000000000e+02	6.566577311560370056e+00
9.330000000000000000e+02	6.208675491087543463e+00
9.340000000000000000e+02	5.869030752871242207e+00
9.350000000000000000e+02	5.546785017185143829e+00
9.360000000000000000e+02	5.241116423674960778e+00
9.370000000000000000e+02	4.951238023327785953e+00
9.380000000000000000e+02	4.676396506255763086e+00
9.390000000000000000e+02	4.415870964900484807e+00
9.400000000000000000e+02	4.168971692235010629e+00
9.410000000000000000e+02	3.935039014512998090e+00
9.420000000000000000e+02	3.713442158089411027e+00
9.430000000000000000e+02	3.503578149814760234e+00
9.440000000000000000e+02	3.304870750483750008e+00
9.450000000000000000e+02	3.116769420800719281e+00
9.460000000000000000e+02	2.938748319307530110e+00
9.470000000000000000e+02	2.770305331704637997e+00
9.480000000000000000e+02	2.610961130982812683e+00
9.490000000000000000e+02	2.460258267771964658e+00
9.500000000000000000e+02	2.317760290303413129e+00
9.510000000000000000e+02	2.183050893373892798e+00
9.520000000000000000e+02	2.055733095692882983e+00
9.530000000000000000e+02	1.935428444989521157e+00
9.540000000000000000e+02	1.821776250251361029e+00
9.550000000000000000e+02	1.714432840464573671e+00
9.560000000000000000e+02	1.613070849223696035e+00
9.570000000000000000e+02	1.517378524578582910e+00
9.580000000000000000e+02	1.427059063487081447e+00
9.590000000000000000e+02	1.341829970243443748e+00
9.600000000000000000e+02	1.261422438255280776e+00
9.610000000000000000e+02	1.185580754545354276e+00
9.620000000000000000e+02	1.114061726358772431e+00
9.630000000000000000e+02	1.046634129261351243e+00
9.640000000000000000e+02	9.830781761206669467e-01
9.650000000000000000e+02	9.231850063678074259e-01
9.660000000000000000e+02	8.667561949448757685e-01
9.670000000000000000e+02	8.136032803509862799e-01
9.680000000000000000e+02	7.635473112075583657e-01
9.690000000000000000e+02	7.164184107723499118e-01
9.700000000000000000e+02	6.720553588406664725e-01
9.710000000000000000e+02	6.303051904815696327e-01
9.720000000000000000e+02	5.910228110666179147e-01
9.730000000000000000e+02	5.540706270587120175e-01
9.740000000000000000e+02	5.193181920388417749e-01
9.750000000000000000e+02	4.866418674590805016e-01
9.760000000000000000e+02	4.559244976208198796e-01
9.770000000000000000e+02	4.270550983880850859e-01
9.780000000000000000e+02	3.999285591567656173e-01
9.790000000000000000e+02	3.744453576116425486e-01
9.800000000000000000e+02	3.505112868142411520e-01
9.810000000000000000e+02	3.280371941757438958e-01
9.820000000000000000e+02	3.069387318804081555e-01
9.830000000000000000e+02	2.871361183361269553e-01
9.840000000000000000e+02	2.685539102400194000e-01
9.850000000000000000e+02	2.511207848580431778e-01
9.860000000000000000e+02	2.347693321287590562e-01
9.870000000000000000e+02	2.194358562123942258e-01
9.880000000000000000e+02	2.050601861172900442e-01
9.890000000000000000e+02	1.915854950466509277e-01
9.900000000000000000e+02	1.789581281192403062e-01
9.910000000000000000e+02	1.671274381282474297e-01
9.920000000000000000e+02	1.560456290129949575e-01
9.930000000000000000e+02	1.456676067284659315e-01
9.940000000000000000e+02	1.359508372077506966e-01
9.950000000000000000e+02	1.268552111224931778e-01
9.960000000000000000e+02	1.183429151562021275e-01
9.970000000000000000e+02	1.103783095149113158e-01
9.980000000000000000e+02	1.029278114090852042e-01
9.990000000000000000e+02	9.595978424991137568e-02
1.000000000000000000e+03	8.944443231213869416e-02
