  440.0000	               71
  441.0000	               46
  442.0000	               63
  443.0000	               59
  444.0000	               75
  445.0000	               71
  446.0000	               68
  447.0000	               77
  448.0000	               60
  449.0000	               58
  450.0000	               53
  451.0000	               54
  452.0000	               80
  453.0000	               73
  454.0000	               68
  455.0000	               69
  456.0000	               75
  457.0000	               84
  458.0000	              124
  459.0000	               78
  460.0000	               76
  461.0000	               81
  462.0000	               82
  463.0000	               60
  464.0000	               67
  465.0000	               67
  466.0000	               87
  467.0000	               39
  468.0000	               62
  469.0000	               87
  470.0000	               76
  471.0000	               79
  472.0000	               81
  473.0000	               76
  474.0000	               83
  475.0000	               70
  476.0000	              113
  477.0000	              118
  478.0000	               88
  479.0000	              119
  480.0000	              171
  481.0000	              138
  482.0000	              212
  483.0000	              179
  484.0000	              261
  485.0000	              266
  486.0000	              201
  487.0000	              288
  488.0000	              383
  489.0000	              423
  490.0000	              452
  491.0000	              455
  492.0000	              539
  493.0000	              630
  494.0000	              663
  495.0000	              752
  496.0000	              848
  497.0000	             1194
  498.0000	             1392
  499.0000	             1560
  500.0000	             1997
  501.0000	             2521
  502.0000	             2991
  503.0000	             3931
  504.0000	             4786
  505.0000	             6184
  506.0000	             7828
  507.0000	             9816
  508.0000	            12261
  509.0000	            16234
  510.0000	            20391
  511.0000	            26242
  512.0000	            31684
  513.0000	            35174
  514.0000	            33762
  515.0000	            29046
  516.0000	            22982
  517.0000	            17343
  518.0000	            13173
  519.0000	             9596
  520.0000	             7361
  521.0000	             5719
  522.0000	             4629
  523.0000	             3585
  524.0000	             3168
  525.0000	             2490
  526.0000	             1970
  527.0000	             1828
  528.0000	             1560
  529.0000	             1425
  530.0000	             1318
  531.0000	             1149
  532.0000	             1120
  533.0000	             1148
  534.0000	             1140
  535.0000	             1125
  536.0000	             1127
  537.0000	             1259
  538.0000	             1276
  539.0000	             1263
  540.0000	             1283
  541.0000	             1332
  542.0000	             1338
  543.0000	             1376
  544.0000	             1552
  545.0000	             1417
  546.0000	             1567
  547.0000	             1489
  548.0000	             1583
  549.0000	             1654
  550.0000	             1548
  551.0000	             1451
  552.0000	             1316
  553.0000	             1483
  554.0000	             1424
  555.0000	             1318
  556.0000	             1347
  557.0000	             1353
  558.0000	             1441
  559.0000	             1328
  560.0000	             1416
  561.0000	             1502
  562.0000	             1616
  563.0000	             1614
  564.0000	             1621
  565.0000	             1678
  566.0000	             1655
  567.0000	             1679
  568.0000	             1870
  569.0000	             1924
  570.0000	             1853
  571.0000	             1849
  572.0000	             2127
  573.0000	             2184
  574.0000	             2042
  575.0000	             2279
  576.0000	             2135
  577.0000	             2403
  578.0000	             2331
  579.0000	             2410
  580.0000	             2428
  581.0000	             2462
  582.0000	             2567
  583.0000	             2446
  584.0000	             2572
  585.0000	             2654
  586.0000	             2871
  587.0000	             2719
  588.0000	             2931
  589.0000	             2830
  590.0000	             2938
  591.0000	             2947
  592.0000	             3010
  593.0000	             3167
  594.0000	             3277
  595.0000	             3097
  596.0000	             3305
  597.0000	             3207
  598.0000	             3290
  599.0000	             3533
  600.0000	             3432
  601.0000	             3424
  602.0000	             3600
  603.0000	             3397
  604.0000	             3663
  605.0000	             3714
  606.0000	             3809
  607.0000	             3735
  608.0000	             3970
  609.0000	             3791
  610.0000	             3891
  611.0000	             4036
  612.0000	             3974
  613.0000	             3932
  614.0000	             4021
  615.0000	             3947
  616.0000	             3998
  617.0000	             4355
  618.0000	             4049
  619.0000	             4203
  620.0000	             4245
  621.0000	             4191
  622.0000	             4258
  623.0000	             4229
  624.0000	             4130
  625.0000	             4136
  626.0000	             4082
  627.0000	             4392
  628.0000	             4161
  629.0000	             4216
  630.0000	             4189
  631.0000	             4146
  632.0000	             4201
  633.0000	             4371
  634.0000	             4182
  635.0000	             4297
  636.0000	             4216
  637.0000	             4051
  638.0000	             3937
  639.0000	             4025
  640.0000	             3962
  641.0000	             3960
  642.0000	             4155
  643.0000	             3886
  644.0000	             3720
  645.0000	             3771
  646.0000	             3881
  647.0000	             3725
  648.0000	             3713
  649.0000	             3730
  650.0000	             3620
  651.0000	             3740
  652.0000	             3680
  653.0000	             3647
  654.0000	             3316
  655.0000	             3478
  656.0000	             3626
  657.0000	             3517
  658.0000	             3323
  659.0000	             3353
  660.0000	             3149
  661.0000	             3123
  662.0000	             3142
  663.0000	             3192
  664.0000	             3113
  665.0000	             2907
  666.0000	             2914
  667.0000	             2825
  668.0000	             2817
  669.0000	             2808
  670.0000	             2584
  671.0000	             2653
  672.0000	             2502
  673.0000	             2634
  674.0000	             2608
  675.0000	             2571
  676.0000	             2358
  677.0000	             2494
  678.0000	             2214
  679.0000	             2260
  680.0000	             2202
  681.0000	             2132
  682.0000	             2169
  683.0000	             2001
  684.0000	             2120
  685.0000	             2007
  686.0000	             1976
  687.0000	             2057
  688.0000	             1990
  689.0000	             2017
  690.0000	             1864
  691.0000	             1833
  692.0000	             2021
  693.0000	             1872
  694.0000	             1842
  695.0000	             1768
  696.0000	             1688
  697.0000	             1756
  698.0000	             1667
  699.0000	             1710
  700.0000	             1702
  701.0000	             1690
  702.0000	             1566
  703.0000	             1487
  704.0000	             1588
  705.0000	             1534
  706.0000	             1516
  707.0000	             1416
  708.0000	             1180
  709.0000	             1267
  710.0000	             1305
  711.0000	             1280
  712.0000	             1106
  713.0000	             1171
  714.0000	             1190
  715.0000	             1180
  716.0000	             1035
  717.0000	             1037
  718.0000	             1066
  719.0000	             1002
  720.0000	              891
  721.0000	              891
  722.0000	              905
  723.0000	              755
  724.0000	              794
  725.0000	              809
  726.0000	              850
  727.0000	              808
  728.0000	              778
  729.0000	              731
  730.0000	              745
  731.0000	              714
  732.0000	              636
  733.0000	              650
  734.0000	              574
  735.0000	              625
  736.0000	              629
  737.0000	              490
  738.0000	              572
  739.0000	              548
  740.0000	              519
  741.0000	              543
  742.0000	              455
  743.0000	              442
  744.0000	              465
  745.0000	              478
  746.0000	              470
  747.0000	              449
  748.0000	              499
  749.0000	              465
  750.0000	              489
  751.0000	              395
  752.0000	              343
  753.0000	              381
  754.0000	              325
  755.0000	              366
  756.0000	              324
  757.0000	              320
  758.0000	              376
  759.0000	              277
  760.0000	              260
  761.0000	              284
  762.0000	              302
  763.0000	              308
  764.0000	              272
  765.0000	              220
  766.0000	              246
  767.0000	              301
  768.0000	              248
  769.0000	              193
  770.0000	              243
  771.0000	              217
  772.0000	              246
  773.0000	              251
  774.0000	              221
  775.0000	              196
  776.0000	              178
  777.0000	              186
  778.0000	              185
  779.0000	              210
  780.0000	              210
  781.0000	              151
  782.0000	              179
  783.0000	              137
  784.0000	              144
  785.0000	              165
  786.0000	              154
  787.0000	              159
  788.0000	              121
  789.0000	              172
  790.0000	              193
  791.0000	              164
  792.0000	              197
  793.0000	              177
  794.0000	              133
  795.0000	              172
  796.0000	              142
  797.0000	              140
  798.0000	              113
  799.0000	              111
  800.0000	              113
