4.410000000000000000e+02	2.775517228015453242e+01
4.420000000000000000e+02	2.919096287662846123e+01
4.430000000000000000e+02	3.069439305135142959e+01
4.440000000000000000e+02	3.226827993044001630e+01
4.450000000000000000e+02	3.391553856180413362e+01
4.460000000000000000e+02	3.563918435206108626e+01
4.470000000000000000e+02	3.744233551693474737e+01
4.480000000000000000e+02	3.932821554257202479e+01
4.490000000000000000e+02	4.130015565505907205e+01
4.500000000000000000e+02	4.336159729527073381e+01
4.510000000000000000e+02	4.551609459603230334e+01
4.520000000000000000e+02	4.776731685841935615e+01
4.530000000000000000e+02	5.011905102386126742e+01
4.540000000000000000e+02	5.257520413855687025e+01
4.550000000000000000e+02	5.513980580654884278e+01
4.560000000000000000e+02	5.781701062763952592e+01
4.570000000000000000e+02	6.061110061616852107e+01
4.580000000000000000e+02	6.352648759650750065e+01
4.590000000000000000e+02	6.656771557095979119e+01
4.600000000000000000e+02	6.973946305558926895e+01
4.610000000000000000e+02	7.304654537933508607e+01
4.620000000000000000e+02	7.649391694160281929e+01
4.630000000000000000e+02	8.008667342335833439e+01
4.640000000000000000e+02	8.383005394658552234e+01
4.650000000000000000e+02	8.772944317680554605e+01
4.660000000000000000e+02	9.179037336319470342e+01
4.670000000000000000e+02	9.601852631067818322e+01
4.680000000000000000e+02	1.004197352782201591e+02
4.690000000000000000e+02	1.049999867973756835e+02
4.700000000000000000e+02	1.097654224050222211e+02
4.710000000000000000e+02	1.147223402840382533e+02
4.720000000000000000e+02	1.198771968055554424e+02
4.730000000000000000e+02	1.252366079662751588e+02
4.740000000000000000e+02	1.308073507142040341e+02
4.750000000000000000e+02	1.365963641560379074e+02
4.760000000000000000e+02	1.426107506393066160e+02
4.770000000000000000e+02	1.488577767022705984e+02
4.780000000000000000e+02	1.553448738844635955e+02
4.790000000000000000e+02	1.620796393906691435e+02
4.800000000000000000e+02	1.690698366010324207e+02
4.810000000000000000e+02	1.763233954199336040e+02
4.820000000000000000e+02	1.838484124561983890e+02
4.830000000000000000e+02	1.916531510273748324e+02
4.840000000000000000e+02	1.997460409822828922e+02
4.850000000000000000e+02	2.081356783462024680e+02
4.860000000000000000e+02	2.168308248561703522e+02
4.870000000000000000e+02	2.258404078145719609e+02
4.880000000000000000e+02	2.351735225911499754e+02
4.890000000000000000e+02	2.448394493425555822e+02
4.900000000000000000e+02	2.548477367927403350e+02
4.910000000000000000e+02	2.652085751177373254e+02
4.920000000000000000e+02	2.759343147096795406e+02
4.930000000000000000e+02	2.870451587938939610e+02
4.940000000000000000e+02	2.985887982186769705e+02
4.950000000000000000e+02	3.107026241739964689e+02
4.960000000000000000e+02	3.237943264446777221e+02
4.970000000000000000e+02	3.390204749556127126e+02
4.980000000000000000e+02	3.594385178682042579e+02
4.990000000000000000e+02	3.925078844522895452e+02
5.000000000000000000e+02	4.549356412467520272e+02
5.010000000000000000e+02	5.809076263848318149e+02
5.020000000000000000e+02	8.339479153749973648e+02
5.030000000000000000e+02	1.320327990394429889e+03
5.040000000000000000e+02	2.197907221861925791e+03
5.050000000000000000e+02	3.669772143569264244e+03
5.060000000000000000e+02	5.950368010070190394e+03
5.070000000000000000e+02	9.197470060568346526e+03
5.080000000000000000e+02	1.341879691376929622e+04
5.090000000000000000e+02	1.838352456835363046e+04
5.100000000000000000e+02	2.358470869025625143e+04
5.110000000000000000e+02	2.829388976361622554e+04
5.120000000000000000e+02	3.171694176285196227e+04
5.130000000000000000e+02	3.321095463879902672e+04
5.140000000000000000e+02	3.248210446199792568e+04
5.150000000000000000e+02	2.968116264451300594e+04
5.160000000000000000e+02	2.535413356839873086e+04
5.170000000000000000e+02	2.027014970579248256e+04
5.180000000000000000e+02	1.520091534615086130e+04
5.190000000000000000e+02	1.073780964951959140e+04
5.200000000000000000e+02	7.202578165633824938e+03
5.210000000000000000e+02	4.658001644192137974e+03
5.220000000000000000e+02	2.984970485822424507e+03
5.230000000000000000e+02	1.978634495939959606e+03
5.240000000000000000e+02	1.426789164028869891e+03
5.250000000000000000e+02	1.154848354153523132e+03
5.260000000000000000e+02	1.040014348892332237e+03
5.270000000000000000e+02	1.006099121906080541e+03
5.280000000000000000e+02	1.010712968485563920e+03
5.290000000000000000e+02	1.032496746214771747e+03
5.300000000000000000e+02	1.061642383600450785e+03
5.310000000000000000e+02	1.094029205302327910e+03
5.320000000000000000e+02	1.128070761432921245e+03
5.330000000000000000e+02	1.163208971114494943e+03
5.340000000000000000e+02	1.199267432290149827e+03
5.350000000000000000e+02	1.236199662291244977e+03
5.360000000000000000e+02	1.273999749324981849e+03
5.370000000000000000e+02	1.312673323408286933e+03
5.380000000000000000e+02	1.352228889802898493e+03
5.390000000000000000e+02	1.392675439159676444e+03
5.400000000000000000e+02	1.434021830384886698e+03
5.410000000000000000e+02	1.476276633395481213e+03
5.420000000000000000e+02	1.519448081634301161e+03
5.430000000000000000e+02	1.563544048669303720e+03
5.440000000000000000e+02	1.608572029606913929e+03
5.450000000000000000e+02	1.654539123338706759e+03
5.460000000000000000e+02	1.701452014876151679e+03
5.470000000000000000e+02	1.749316957659092623e+03
5.480000000000000000e+02	1.798139755837607936e+03
5.490000000000000000e+02	1.847925746546297432e+03
5.500000000000000000e+02	1.898679782193625442e+03
5.510000000000000000e+02	1.950406212789933534e+03
5.520000000000000000e+02	2.003108868338436878e+03
5.530000000000000000e+02	2.056791041314052109e+03
5.540000000000000000e+02	2.111455469255495245e+03
5.550000000000000000e+02	2.167104317496555268e+03
5.560000000000000000e+02	2.223739162062992364e+03
5.570000000000000000e+02	2.281360972761897301e+03
5.580000000000000000e+02	2.339970096490820197e+03
5.590000000000000000e+02	2.399566240794316855e+03
5.600000000000000000e+02	2.460148457695928755e+03
5.610000000000000000e+02	2.521715127833883344e+03
5.620000000000000000e+02	2.584263944929105037e+03
5.630000000000000000e+02	2.647791900614282895e+03
5.640000000000000000e+02	2.712295269652974639e+03
5.650000000000000000e+02	2.777769595577796736e+03
5.660000000000000000e+02	2.844209676776861670e+03
5.670000000000000000e+02	2.911609553057636276e+03
5.680000000000000000e+02	2.979962492717369514e+03
5.690000000000000000e+02	3.049260980149170337e+03
5.700000000000000000e+02	3.119496704012692589e+03
5.710000000000000000e+02	3.190660545998178350e+03
5.720000000000000000e+02	3.262742570212406463e+03
5.730000000000000000e+02	3.335732013214791095e+03
5.740000000000000000e+02	3.409617274731511316e+03
5.750000000000000000e+02	3.484385909075170730e+03
5.760000000000000000e+02	3.560024617297017812e+03
5.770000000000000000e+02	3.636519240098230057e+03
5.780000000000000000e+02	3.713854751526212112e+03
5.790000000000000000e+02	3.792015253481183208e+03
5.800000000000000000e+02	3.870983971057685721e+03
5.810000000000000000e+02	3.950743248744860466e+03
5.820000000000000000e+02	4.031274547508532123e+03
5.830000000000000000e+02	4.112558442777302844e+03
5.840000000000000000e+02	4.194574623353909374e+03
5.850000000000000000e+02	4.277301891272118155e+03
5.860000000000000000e+02	4.360718162618438328e+03
5.870000000000000000e+02	4.444800469336768401e+03
5.880000000000000000e+02	4.529524962033051452e+03
5.890000000000000000e+02	4.614866913795723121e+03
5.900000000000000000e+02	4.700800725046564366e+03
5.910000000000000000e+02	4.787299929435231206e+03
5.920000000000000000e+02	4.874337200789426788e+03
5.930000000000000000e+02	4.961884361131254082e+03
5.940000000000000000e+02	5.049912389768901448e+03
5.950000000000000000e+02	5.138391433471299024e+03
5.960000000000000000e+02	5.227290817731894094e+03
5.970000000000000000e+02	5.316579059126122957e+03
5.980000000000000000e+02	5.406223878765591508e+03
5.990000000000000000e+02	5.496192216850341538e+03
6.000000000000000000e+02	5.586450248318912600e+03
6.010000000000000000e+02	5.676963399594271323e+03
6.020000000000000000e+02	5.767696366421940183e+03
6.030000000000000000e+02	5.858613132794937883e+03
6.040000000000000000e+02	5.949676990958424540e+03
6.050000000000000000e+02	6.040850562485135924e+03
6.060000000000000000e+02	6.132095820410972919e+03
6.070000000000000000e+02	6.223374112418287041e+03
6.080000000000000000e+02	6.314646185052630244e+03
6.090000000000000000e+02	6.405872208956945542e+03
6.100000000000000000e+02	6.497011805105393250e+03
6.110000000000000000e+02	6.588024072017190520e+03
6.120000000000000000e+02	6.678867613929108302e+03
6.130000000000000000e+02	6.769500569903460928e+03
6.140000000000000000e+02	6.859880643846704515e+03
6.150000000000000000e+02	6.949965135411995107e+03
6.160000000000000000e+02	7.039710971757391235e+03
6.170000000000000000e+02	7.129074740129652128e+03
6.180000000000000000e+02	7.218012721241956569e+03
6.190000000000000000e+02	7.306480923412255834e+03
6.200000000000000000e+02	7.394435117427358819e+03
6.210000000000000000e+02	7.481830872096323219e+03
6.220000000000000000e+02	7.568623590455231351e+03
6.230000000000000000e+02	7.654768546583970419e+03
6.240000000000000000e+02	7.740220922994226385e+03
6.250000000000000000e+02	7.824935848546575471e+03
6.260000000000000000e+02	7.908868436853245839e+03
6.270000000000000000e+02	7.991973825121925074e+03
6.280000000000000000e+02	8.074207213394772225e+03
6.290000000000000000e+02	8.155523904135764496e+03
6.300000000000000000e+02	8.235879342118421846e+03
6.310000000000000000e+02	8.315229154565022327e+03
6.320000000000000000e+02	8.393529191487559729e+03
6.330000000000000000e+02	8.470735566179844682e+03
6.340000000000000000e+02	8.546804695809472832e+03
6.350000000000000000e+02	8.621693342057731570e+03
6.360000000000000000e+02	8.695358651754935636e+03
6.370000000000000000e+02	8.767758197458249924e+03
6.380000000000000000e+02	8.838850017918661251e+03
6.390000000000000000e+02	8.908592658383431626e+03
6.400000000000000000e+02	8.976945210680240052e+03
6.410000000000000000e+02	9.043867353029025253e+03
6.420000000000000000e+02	9.109319389527596286e+03
6.430000000000000000e+02	9.173262289257085285e+03
6.440000000000000000e+02	9.235657724953553043e+03
6.450000000000000000e+02	9.296468111192272772e+03
6.460000000000000000e+02	9.355656642031595766e+03
6.470000000000000000e+02	9.413187328063748282e+03
6.480000000000000000e+02	9.469025032820474735e+03
6.490000000000000000e+02	9.523135508482077057e+03
6.500000000000000000e+02	9.575485430839074979e+03
6.510000000000000000e+02	9.626042433456692379e+03
6.520000000000000000e+02	9.674775140993087916e+03
6.530000000000000000e+02	9.721653201623435962e+03
6.540000000000000000e+02	9.766647318522971545e+03
6.550000000000000000e+02	9.809729280363289945e+03
6.560000000000000000e+02	9.850871990777530300e+03
6.570000000000000000e+02	9.890049496751349579e+03
6.580000000000000000e+02	9.927237015898066602e+03
6.590000000000000000e+02	9.962410962577872851e+03
6.600000000000000000e+02	9.995548972822571159e+03
6.610000000000000000e+02	1.002662992802897679e+04
6.620000000000000000e+02	1.005563397738586355e+04
6.630000000000000000e+02	1.008254255900108365e+04
6.640000000000000000e+02	1.010733841969743298e+04
6.650000000000000000e+02	1.013000563344765942e+04
6.660000000000000000e+02	1.015052961842108925e+04
6.670000000000000000e+02	1.016889715261628589e+04
6.680000000000000000e+02	1.018509638805631585e+04
6.690000000000000000e+02	1.019911686352526158e+04
6.700000000000000000e+02	1.021094951582683643e+04
6.710000000000000000e+02	1.022058668954811947e+04
6.720000000000000000e+02	1.022802214531369100e+04
6.730000000000000000e+02	1.023325106651773240e+04
6.740000000000000000e+02	1.023627006452387832e+04
6.750000000000000000e+02	1.023707718232500520e+04
6.760000000000000000e+02	1.023567189665739897e+04
6.770000000000000000e+02	1.023205511856610792e+04
6.780000000000000000e+02	1.022622919242063290e+04
6.790000000000000000e+02	1.021819789338243936e+04
6.800000000000000000e+02	1.020796642332811643e+04
6.810000000000000000e+02	1.019554140523435126e+04
6.820000000000000000e+02	1.018093087603320600e+04
6.830000000000000000e+02	1.016414427794848416e+04
6.840000000000000000e+02	1.014519244832625554e+04
6.850000000000000000e+02	1.012408760797487594e+04
6.860000000000000000e+02	1.010084334803207275e+04
6.870000000000000000e+02	1.007547461537884010e+04
6.880000000000000000e+02	1.004799769662205108e+04
6.890000000000000000e+02	1.001843020066985082e+04
6.900000000000000000e+02	9.986791039925868972e+03
6.910000000000000000e+02	9.953100410130426098e+03
6.920000000000000000e+02	9.917379768878769028e+03
6.930000000000000000e+02	9.879651812848333066e+03
6.940000000000000000e+02	9.839940453768875159e+03
6.950000000000000000e+02	9.798270793171050173e+03
6.960000000000000000e+02	9.754669095950794144e+03
6.970000000000000000e+02	9.709162762788460896e+03
6.980000000000000000e+02	9.661780301463217256e+03
6.990000000000000000e+02	9.612551297104775585e+03
7.000000000000000000e+02	9.561506381425842847e+03
7.010000000000000000e+02	9.508677200980086127e+03
7.020000000000000000e+02	9.454096384491622302e+03
7.030000000000000000e+02	9.397797509303181869e+03
7.040000000000000000e+02	9.339815066991230196e+03
7.050000000000000000e+02	9.280184428197249872e+03
7.060000000000000000e+02	9.218941806725330025e+03
7.070000000000000000e+02	9.156124222956976155e+03
7.080000000000000000e+02	9.091769466634797936e+03
7.090000000000000000e+02	9.025916059067292736e+03
7.100000000000000000e+02	8.958603214807564655e+03
7.110000000000000000e+02	8.889870802859119067e+03
7.120000000000000000e+02	8.819759307462310971e+03
7.130000000000000000e+02	8.748309788515214677e+03
7.140000000000000000e+02	8.675563841682815109e+03
7.150000000000000000e+02	8.601563558248542904e+03
7.160000000000000000e+02	8.526351484762015389e+03
7.170000000000000000e+02	8.449970582536818256e+03
7.180000000000000000e+02	8.372464187051889894e+03
7.190000000000000000e+02	8.293875967309737462e+03
7.200000000000000000e+02	8.214249885204344537e+03
7.210000000000000000e+02	8.133630154951097211e+03
7.220000000000000000e+02	8.052061202630522530e+03
7.230000000000000000e+02	7.969587625896930149e+03
7.240000000000000000e+02	7.886254153902312282e+03
7.250000000000000000e+02	7.802105607485057590e+03
7.260000000000000000e+02	7.717186859672104219e+03
7.270000000000000000e+02	7.631542796542194083e+03
7.280000000000000000e+02	7.545218278496856328e+03
7.290000000000000000e+02	7.458258101984602035e+03
7.300000000000000000e+02	7.370706961722666165e+03
7.310000000000000000e+02	7.282609413459357711e+03
7.320000000000000000e+02	7.194009837318793871e+03
7.330000000000000000e+02	7.104952401768421623e+03
7.340000000000000000e+02	7.015481028248323128e+03
7.350000000000000000e+02	6.925639356499825226e+03
7.360000000000000000e+02	6.835470710629442692e+03
7.370000000000000000e+02	6.745018065942595967e+03
7.380000000000000000e+02	6.654324016579987074e+03
7.390000000000000000e+02	6.563430743987858477e+03
7.400000000000000000e+02	6.472379986251718037e+03
7.410000000000000000e+02	6.381213008321401503e+03
7.420000000000000000e+02	6.289970573153637815e+03
7.430000000000000000e+02	6.198692913796549874e+03
7.440000000000000000e+02	6.107419706438761750e+03
7.450000000000000000e+02	6.016190044443995248e+03
7.460000000000000000e+02	5.925042413390300680e+03
7.470000000000000000e+02	5.834014667131226815e+03
7.480000000000000000e+02	5.743144004894493264e+03
7.490000000000000000e+02	5.652466949431891408e+03
7.500000000000000000e+02	5.562019326232398271e+03
7.510000000000000000e+02	5.471836243808665131e+03
7.520000000000000000e+02	5.381952075065303688e+03
7.530000000000000000e+02	5.292400439755606385e+03
7.540000000000000000e+02	5.203214188031637605e+03
7.550000000000000000e+02	5.114425385090875352e+03
7.560000000000000000e+02	5.026065296920891342e+03
7.570000000000000000e+02	4.938164377141906698e+03
7.580000000000000000e+02	4.850752254945400637e+03
7.590000000000000000e+02	4.763857724125334244e+03
7.600000000000000000e+02	4.677508733196977118e+03
7.610000000000000000e+02	4.591732376596801259e+03
7.620000000000000000e+02	4.506554886955354050e+03
7.630000000000000000e+02	4.422001628433625228e+03
7.640000000000000000e+02	4.338097091111942063e+03
7.650000000000000000e+02	4.254864886419087270e+03
7.660000000000000000e+02	4.172327743587997247e+03
7.670000000000000000e+02	4.090507507123103096e+03
7.680000000000000000e+02	4.009425135263183165e+03
7.690000000000000000e+02	3.929100699422353955e+03
7.700000000000000000e+02	3.849553384590784844e+03
7.710000000000000000e+02	3.770801490675552031e+03
7.720000000000000000e+02	3.692862434761114400e+03
7.730000000000000000e+02	3.615752754267878117e+03
7.740000000000000000e+02	3.539488110986429547e+03
7.750000000000000000e+02	3.464083295964159788e+03
7.760000000000000000e+02	3.389552235220220155e+03
7.770000000000000000e+02	3.315907996264006670e+03
7.780000000000000000e+02	3.243162795391698637e+03
7.790000000000000000e+02	3.171328005734743783e+03
7.800000000000000000e+02	3.100414166033649963e+03
7.810000000000000000e+02	3.030430990109915456e+03
7.820000000000000000e+02	2.961387377008487874e+03
7.830000000000000000e+02	2.893291421782766975e+03
7.840000000000000000e+02	2.826150426893816984e+03
7.850000000000000000e+02	2.759970914195192563e+03
7.860000000000000000e+02	2.694758637474556508e+03
7.870000000000000000e+02	2.630518595523086333e+03
7.880000000000000000e+02	2.567255045703583164e+03
7.890000000000000000e+02	2.504971517988110463e+03
7.900000000000000000e+02	2.443670829435991436e+03
7.910000000000000000e+02	2.383355099083027199e+03
7.920000000000000000e+02	2.324025763212902348e+03
7.930000000000000000e+02	2.265683590981855559e+03
7.940000000000000000e+02	2.208328700367909278e+03
7.950000000000000000e+02	2.151960574416138115e+03
7.960000000000000000e+02	2.096578077751775254e+03
7.970000000000000000e+02	2.042179473333215356e+03
7.980000000000000000e+02	1.988762439417367432e+03
7.990000000000000000e+02	1.936324086710173560e+03
8.000000000000000000e+02	1.884860975675549525e+03
8.010000000000000000e+02	1.834369133976451621e+03
8.020000000000000000e+02	1.784844074022282257e+03
8.030000000000000000e+02	1.736280810597352684e+03
8.040000000000000000e+02	1.688673878545692332e+03
8.050000000000000000e+02	1.642017350488062903e+03
8.060000000000000000e+02	1.596304854547648802e+03
8.070000000000000000e+02	1.551529592061509902e+03
8.080000000000000000e+02	1.507684355255569017e+03
8.090000000000000000e+02	1.464761544861530183e+03
8.100000000000000000e+02	1.422753187654850990e+03
8.110000000000000000e+02	1.381650953893585893e+03
8.120000000000000000e+02	1.341446174638632556e+03
8.130000000000000000e+02	1.302129858936648361e+03
8.140000000000000000e+02	1.263692710847657054e+03
8.150000000000000000e+02	1.226125146300109918e+03
8.160000000000000000e+02	1.189417309756915984e+03
8.170000000000000000e+02	1.153559090676754522e+03
8.180000000000000000e+02	1.118540139755715927e+03
8.190000000000000000e+02	1.084349884935110822e+03
8.200000000000000000e+02	1.050977547162062137e+03
8.210000000000000000e+02	1.018412155890256031e+03
8.220000000000000000e+02	9.866425643090115045e+02
8.230000000000000000e+02	9.556574642895809575e+02
8.240000000000000000e+02	9.254454010383811919e+02
8.250000000000000000e+02	8.959947874475864182e+02
8.260000000000000000e+02	8.672939181342727579e+02
8.270000000000000000e+02	8.393309831600582811e+02
8.280000000000000000e+02	8.120940814238937264e+02
8.290000000000000000e+02	7.855712337213893761e+02
8.300000000000000000e+02	7.597503954647743285e+02
8.310000000000000000e+02	7.346194690582804014e+02
8.320000000000000000e+02	7.101663159244126291e+02
8.330000000000000000e+02	6.863787681772545284e+02
8.340000000000000000e+02	6.632446399396023935e+02
8.350000000000000000e+02	6.407517383013413337e+02
8.360000000000000000e+02	6.188878739171303778e+02
8.370000000000000000e+02	5.976408712420280835e+02
8.380000000000000000e+02	5.769985784043079775e+02
8.390000000000000000e+02	5.569488767152456603e+02
8.400000000000000000e+02	5.374796898162368279e+02
8.410000000000000000e+02	5.185789924641121615e+02
8.420000000000000000e+02	5.002348189560286187e+02
8.430000000000000000e+02	4.824352711958056261e+02
8.440000000000000000e+02	4.651685264040423817e+02
8.450000000000000000e+02	4.484228444747928961e+02
8.460000000000000000e+02	4.321865749820134397e+02
8.470000000000000000e+02	4.164481638393893945e+02
8.480000000000000000e+02	4.011961596175447085e+02
8.490000000000000000e+02	3.864192195229935578e+02
8.500000000000000000e+02	3.721061150435472200e+02
8.510000000000000000e+02	3.582457372651968512e+02
8.520000000000000000e+02	3.448271018658157914e+02
8.530000000000000000e+02	3.318393537912897386e+02
8.540000000000000000e+02	3.192717716199587130e+02
8.550000000000000000e+02	3.071137716214894340e+02
8.560000000000000000e+02	2.953549115165237140e+02
8.570000000000000000e+02	2.839848939436565729e+02
8.580000000000000000e+02	2.729935696404729129e+02
8.590000000000000000e+02	2.623709403455496272e+02
8.600000000000000000e+02	2.521071614284746545e+02
8.610000000000000000e+02	2.421925442550604259e+02
8.620000000000000000e+02	2.326175582950547209e+02
8.630000000000000000e+02	2.233728329797374386e+02
8.640000000000000000e+02	2.144491593168796442e+02
8.650000000000000000e+02	2.058374912706054545e+02
8.660000000000000000e+02	1.975289469137439085e+02
8.670000000000000000e+02	1.895148093602952031e+02
8.680000000000000000e+02	1.817865274856583255e+02
8.690000000000000000e+02	1.743357164422673122e+02
8.700000000000000000e+02	1.671541579782835640e+02
8.710000000000000000e+02	1.602338005669712402e+02
8.720000000000000000e+02	1.535667593543458622e+02
8.730000000000000000e+02	1.471453159326513855e+02
8.740000000000000000e+02	1.409619179471629877e+02
8.750000000000000000e+02	1.350091785437475380e+02
8.760000000000000000e+02	1.292798756645414926e+02
8.770000000000000000e+02	1.237669511990224862e+02
8.780000000000000000e+02	1.184635099976580648e+02
8.790000000000000000e+02	1.133628187552111655e+02
8.800000000000000000e+02	1.084583047706819912e+02
8.810000000000000000e+02	1.037435545907394783e+02
8.820000000000000000e+02	9.921231254338249528e+01
8.830000000000000000e+02	9.485847916843793826e+01
8.840000000000000000e+02	9.067610955136964890e+01
8.850000000000000000e+02	8.665941156673417822e+01
8.860000000000000000e+02	8.280274403747489487e+01
8.870000000000000000e+02	7.910061481609763234e+01
8.880000000000000000e+02	7.554767879362086092e+01
8.890000000000000000e+02	7.213873584203751932e+01
8.900000000000000000e+02	6.886872869586841261e+01
8.910000000000000000e+02	6.573274077822618722e+01
8.920000000000000000e+02	6.272599397665033649e+01
8.930000000000000000e+02	5.984384637380387773e+01
8.940000000000000000e+02	5.708178993796511946e+01
8.950000000000000000e+02	5.443544817807612191e+01
8.960000000000000000e+02	5.190057376794668187e+01
8.970000000000000000e+02	4.947304614404670531e+01
8.980000000000000000e+02	4.714886908115150277e+01
8.990000000000000000e+02	4.492416824994156599e+01
9.000000000000000000e+02	4.279518876049239395e+01
9.010000000000000000e+02	4.075829269542641953e+01
9.020000000000000000e+02	3.880995663633672876e+01
9.030000000000000000e+02	3.694676918693269130e+01
9.040000000000000000e+02	3.516542849619612809e+01
9.050000000000000000e+02	3.346273978468266819e+01
9.060000000000000000e+02	3.183561287694622521e+01
9.070000000000000000e+02	3.028105974291255009e+01
9.080000000000000000e+02	2.879619205087872302e+01
9.090000000000000000e+02	2.737821873466818801e+01
9.100000000000000000e+02	2.602444357732601787e+01
9.110000000000000000e+02	2.473226281359912804e+01
9.120000000000000000e+02	2.349916275330784643e+01
9.130000000000000000e+02	2.232271742757973598e+01
9.140000000000000000e+02	2.120058625978627020e+01
9.150000000000000000e+02	2.013051176289460997e+01
9.160000000000000000e+02	1.911031726482165638e+01
9.170000000000000000e+02	1.813790466325763617e+01
9.180000000000000000e+02	1.721125221130846228e+01
9.190000000000000000e+02	1.632841233519260626e+01
9.200000000000000000e+02	1.548750948511836611e+01
9.210000000000000000e+02	1.468673802036106046e+01
9.220000000000000000e+02	1.392436012945695722e+01
9.230000000000000000e+02	1.319870378633207864e+01
9.240000000000000000e+02	1.250816074308889725e+01
9.250000000000000000e+02	1.185118456008219212e+01
9.260000000000000000e+02	1.122628867382800877e+01
9.270000000000000000e+02	1.063204450320517758e+01
9.280000000000000000e+02	1.006707959432861443e+01
9.290000000000000000e+02	9.530075804396675565e+00
9.300000000000000000e+02	9.019767524741364895e+00
9.310000000000000000e+02	8.534939943240580362e+00
9.320000000000000000e+02	8.074427346185032661e+00
9.330000000000000000e+02	7.637111459629361221e+00
9.340000000000000000e+02	7.221919830197563783e+00
9.350000000000000000e+02	6.827824245256200797e+00
9.360000000000000000e+02	6.453839192315521167e+00
9.370000000000000000e+02	6.099020357468828202e+00
9.380000000000000000e+02	5.762463162633086888e+00
9.390000000000000000e+02	5.443301341309616959e+00
9.400000000000000000e+02	5.140705552542739198e+00
9.410000000000000000e+02	4.853882032715591599e+00
9.420000000000000000e+02	4.582071284786752408e+00
9.430000000000000000e+02	4.324546804538143441e+00
9.440000000000000000e+02	4.080613843374421457e+00
9.450000000000000000e+02	3.849608207185807096e+00
9.460000000000000000e+02	3.630895090760716482e+00
9.470000000000000000e+02	3.423867947211434615e+00
9.480000000000000000e+02	3.227947391854689485e+00
9.490000000000000000e+02	3.042580139970123998e+00
9.500000000000000000e+02	2.867237977842814090e+00
9.510000000000000000e+02	2.701416766480885023e+00
9.520000000000000000e+02	2.544635477386184785e+00
9.530000000000000000e+02	2.396435259744852608e+00
9.540000000000000000e+02	2.256378538394783639e+00
9.550000000000000000e+02	2.124048141919261834e+00
9.560000000000000000e+02	1.999046460209508158e+00
9.570000000000000000e+02	1.880994630834042614e+00
9.580000000000000000e+02	1.769531753549169695e+00
9.590000000000000000e+02	1.664314132282750380e+00
9.600000000000000000e+02	1.565014543922508494e+00
9.610000000000000000e+02	1.471321533240188550e+00
9.620000000000000000e+02	1.382938733284434729e+00
9.630000000000000000e+02	1.299584210577488630e+00
9.640000000000000000e+02	1.220989834454139888e+00
9.650000000000000000e+02	1.146900669885773327e+00
9.660000000000000000e+02	1.077074393137269936e+00
9.670000000000000000e+02	1.011280729610519957e+00
9.680000000000000000e+02	9.493009132349085055e-01
9.690000000000000000e+02	8.909271667724019128e-01
9.700000000000000000e+02	8.359622024127215667e-01
9.710000000000000000e+02	7.842187420426786071e-01
9.720000000000000000e+02	7.355190565825820981e-01
9.730000000000000000e+02	6.896945237921527916e-01
9.740000000000000000e+02	6.465852039582405952e-01
9.750000000000000000e+02	6.060394328868280445e-01
9.760000000000000000e+02	5.679134316324151444e-01
9.770000000000000000e+02	5.320709324087130598e-01
9.780000000000000000e+02	4.983828201356955701e-01
9.790000000000000000e+02	4.667267890893665450e-01
9.800000000000000000e+02	4.369870141321209878e-01
9.810000000000000000e+02	4.090538360132390805e-01
9.820000000000000000e+02	3.828234602407795673e-01
9.830000000000000000e+02	3.581976690380542228e-01
9.840000000000000000e+02	3.350835459097369351e-01
9.850000000000000000e+02	3.133932123546175341e-01
9.860000000000000000e+02	2.930435762739893590e-01
9.870000000000000000e+02	2.739560916365693655e-01
9.880000000000000000e+02	2.560565289727743110e-01
9.890000000000000000e+02	2.392747562830265518e-01
9.900000000000000000e+02	2.235445299565279875e-01
9.910000000000000000e+02	2.088032953086245980e-01
9.920000000000000000e+02	1.949919963564644421e-01
9.930000000000000000e+02	1.820548944640978661e-01
9.940000000000000000e+02	1.699393954994790068e-01
9.950000000000000000e+02	1.585958851570053174e-01
9.960000000000000000e+02	1.479775721102286890e-01
9.970000000000000000e+02	1.380403386702044044e-01
9.980000000000000000e+02	1.287425986356196261e-01
9.990000000000000000e+02	1.200451620312912165e-01
1.000000000000000000e+03	1.119111064419117257e-01
