  440.0000	               91
  441.0000	               72
  442.0000	               91
  443.0000	               70
  444.0000	               97
  445.0000	               84
  446.0000	               94
  447.0000	              115
  448.0000	              108
  449.0000	               86
  450.0000	               64
  451.0000	               68
  452.0000	              146
  453.0000	              115
  454.0000	              131
  455.0000	              138
  456.0000	              126
  457.0000	              139
  458.0000	              143
  459.0000	              145
  460.0000	              119
  461.0000	              117
  462.0000	              126
  463.0000	              115
  464.0000	              153
  465.0000	              137
  466.0000	              125
  467.0000	              139
  468.0000	              108
  469.0000	              107
  470.0000	              123
  471.0000	              173
  472.0000	              164
  473.0000	              190
  474.0000	              228
  475.0000	              240
  476.0000	              284
  477.0000	              303
  478.0000	              329
  479.0000	              414
  480.0000	              466
  481.0000	              555
  482.0000	              615
  483.0000	              677
  484.0000	              785
  485.0000	              886
  486.0000	              978
  487.0000	              987
  488.0000	             1343
  489.0000	             1336
  490.0000	             1558
  491.0000	             1867
  492.0000	             2049
  493.0000	             2373
  494.0000	             2794
  495.0000	             3208
  496.0000	             3921
  497.0000	             4654
  498.0000	             5416
  499.0000	             6573
  500.0000	             8293
  501.0000	            10389
  502.0000	            13050
  503.0000	            16955
  504.0000	            20663
  505.0000	            26175
  506.0000	            34083
  507.0000	            42371
  508.0000	            55490
  509.0000	            69523
  510.0000	            88947
  511.0000	           110475
  512.0000	           133494
  513.0000	           145874
  514.0000	           143918
  515.0000	           126961
  516.0000	           100931
  517.0000	            76540
  518.0000	            56082
  519.0000	            42245
  520.0000	            31803
  521.0000	            24164
  522.0000	            19247
  523.0000	            15161
  524.0000	            12371
  525.0000	            10030
  526.0000	             8078
  527.0000	             7225
  528.0000	             6019
  529.0000	             5074
  530.0000	             4361
  531.0000	             4183
  532.0000	             3681
  533.0000	             3324
  534.0000	             3300
  535.0000	             3361
  536.0000	             3326
  537.0000	             3084
  538.0000	             3357
  539.0000	             3227
  540.0000	             3368
  541.0000	             3451
  542.0000	             3329
  543.0000	             3435
  544.0000	             3472
  545.0000	             3483
  546.0000	             3409
  547.0000	             3567
  548.0000	             3536
  549.0000	             3502
  550.0000	             3278
  551.0000	             3133
  552.0000	             3264
  553.0000	             2711
  554.0000	             2709
  555.0000	             2536
  556.0000	             2584
  557.0000	             2635
  558.0000	             2388
  559.0000	             2515
  560.0000	             2310
  561.0000	             2500
  562.0000	             2538
  563.0000	             2604
  564.0000	             2442
  565.0000	             2532
  566.0000	             2730
  567.0000	             2846
  568.0000	             2977
  569.0000	             3092
  570.0000	             3002
  571.0000	             3115
  572.0000	             3258
  573.0000	             3174
  574.0000	             3059
  575.0000	             3231
  576.0000	             3305
  577.0000	             3202
  578.0000	             3230
  579.0000	             3308
  580.0000	             3594
  581.0000	             3350
  582.0000	             3494
  583.0000	             3486
  584.0000	             3550
  585.0000	             3377
  586.0000	             3618
  587.0000	             3684
  588.0000	             3586
  589.0000	             3754
  590.0000	             3833
  591.0000	             4193
  592.0000	             3913
  593.0000	             4041
  594.0000	             4108
  595.0000	             4231
  596.0000	             4124
  597.0000	             4142
  598.0000	             4160
  599.0000	             4448
  600.0000	             4377
  601.0000	             4244
  602.0000	             4523
  603.0000	             4454
  604.0000	             4407
  605.0000	             4403
  606.0000	             4771
  607.0000	             4553
  608.0000	             4751
  609.0000	             4540
  610.0000	             4671
  611.0000	             4712
  612.0000	             4769
  613.0000	             4819
  614.0000	             4813
  615.0000	             5047
  616.0000	             4871
  617.0000	             4915
  618.0000	             4815
  619.0000	             4966
  620.0000	             4778
  621.0000	             4855
  622.0000	             4945
  623.0000	             4842
  624.0000	             4809
  625.0000	             4863
  626.0000	             4774
  627.0000	             5096
  628.0000	             4701
  629.0000	             4851
  630.0000	             4727
  631.0000	             4749
  632.0000	             4758
  633.0000	             4742
  634.0000	             4647
  635.0000	             4385
  636.0000	             4573
  637.0000	             4268
  638.0000	             4465
  639.0000	             4324
  640.0000	             4404
  641.0000	             4425
  642.0000	             4218
  643.0000	             4467
  644.0000	             4511
  645.0000	             4303
  646.0000	             4272
  647.0000	             4215
  648.0000	             4090
  649.0000	             3976
  650.0000	             3919
  651.0000	             3877
  652.0000	             3748
  653.0000	             3690
  654.0000	             3860
  655.0000	             3818
  656.0000	             3650
  657.0000	             3598
  658.0000	             3313
  659.0000	             3433
  660.0000	             3630
  661.0000	             3485
  662.0000	             3282
  663.0000	             3189
  664.0000	             3086
  665.0000	             3124
  666.0000	             3035
  667.0000	             2969
  668.0000	             2911
  669.0000	             2954
  670.0000	             2898
  671.0000	             2803
  672.0000	             2738
  673.0000	             2704
  674.0000	             2676
  675.0000	             2554
  676.0000	             2560
  677.0000	             2450
  678.0000	             2337
  679.0000	             2315
  680.0000	             2180
  681.0000	             2263
  682.0000	             2349
  683.0000	             2160
  684.0000	             2088
  685.0000	             2080
  686.0000	             2001
  687.0000	             2121
  688.0000	             1965
  689.0000	             1934
  690.0000	             1972
  691.0000	             2141
  692.0000	             2078
  693.0000	             1962
  694.0000	             1938
  695.0000	             1800
  696.0000	             1856
  697.0000	             1593
  698.0000	             1875
  699.0000	             1716
  700.0000	             1667
  701.0000	             1491
  702.0000	             1555
  703.0000	             1495
  704.0000	             1543
  705.0000	             1524
  706.0000	             1304
  707.0000	             1360
  708.0000	             1455
  709.0000	             1330
  710.0000	             1347
  711.0000	             1178
  712.0000	             1153
  713.0000	             1155
  714.0000	             1082
  715.0000	             1007
  716.0000	             1145
  717.0000	             1019
  718.0000	              985
  719.0000	              994
  720.0000	              927
  721.0000	             1006
  722.0000	              935
  723.0000	              916
  724.0000	              918
  725.0000	              902
  726.0000	              842
  727.0000	              884
  728.0000	              752
  729.0000	              754
  730.0000	              771
  731.0000	              735
  732.0000	              676
  733.0000	              678
  734.0000	              665
  735.0000	              658
  736.0000	              628
  737.0000	              633
  738.0000	              553
  739.0000	              594
  740.0000	              544
  741.0000	              493
  742.0000	              560
  743.0000	              481
  744.0000	              530
  745.0000	              434
  746.0000	              418
  747.0000	              414
  748.0000	              441
  749.0000	              434
  750.0000	              436
  751.0000	              368
  752.0000	              381
  753.0000	              393
  754.0000	              375
  755.0000	              370
  756.0000	              378
  757.0000	              301
  758.0000	              274
  759.0000	              312
  760.0000	              283
  761.0000	              287
  762.0000	              286
  763.0000	              239
  764.0000	              296
  765.0000	              250
  766.0000	              278
  767.0000	              256
  768.0000	              213
  769.0000	              257
  770.0000	              214
  771.0000	              246
  772.0000	              247
  773.0000	              232
  774.0000	              247
  775.0000	              234
  776.0000	              194
  777.0000	              163
  778.0000	              222
  779.0000	              221
  780.0000	              197
  781.0000	              195
  782.0000	              192
  783.0000	              181
  784.0000	              139
  785.0000	              176
  786.0000	              176
  787.0000	              134
  788.0000	              190
  789.0000	              157
  790.0000	              135
  791.0000	              138
  792.0000	              148
  793.0000	              135
  794.0000	              139
  795.0000	              194
  796.0000	              134
  797.0000	              117
  798.0000	              151
  799.0000	              110
  800.0000	              130
