  440.0000	               67
  441.0000	               94
  442.0000	              105
  443.0000	               73
  444.0000	               59
  445.0000	              102
  446.0000	               83
  447.0000	               58
  448.0000	               70
  449.0000	               74
  450.0000	              117
  451.0000	               85
  452.0000	               77
  453.0000	               63
  454.0000	              102
  455.0000	               86
  456.0000	              106
  457.0000	              101
  458.0000	              118
  459.0000	               72
  460.0000	              101
  461.0000	               91
  462.0000	              119
  463.0000	              112
  464.0000	               92
  465.0000	               92
  466.0000	               98
  467.0000	               94
  468.0000	              112
  469.0000	               91
  470.0000	              111
  471.0000	              121
  472.0000	              125
  473.0000	              131
  474.0000	              149
  475.0000	              131
  476.0000	              199
  477.0000	              215
  478.0000	              204
  479.0000	              292
  480.0000	              275
  481.0000	              333
  482.0000	              398
  483.0000	              400
  484.0000	              513
  485.0000	              556
  486.0000	              576
  487.0000	              636
  488.0000	              635
  489.0000	              875
  490.0000	              983
  491.0000	             1135
  492.0000	             1160
  493.0000	             1339
  494.0000	             1613
  495.0000	             1937
  496.0000	             2237
  497.0000	             2612
  498.0000	             3133
  499.0000	             3889
  500.0000	             4899
  501.0000	             6000
  502.0000	             7297
  503.0000	             9261
  504.0000	            11832
  505.0000	            15327
  506.0000	            19648
  507.0000	            25047
  508.0000	            32009
  509.0000	            40986
  510.0000	            52622
  511.0000	            65876
  512.0000	            79112
  513.0000	            87233
  514.0000	            84224
  515.0000	            73090
  516.0000	            57428
  517.0000	            43467
  518.0000	            32177
  519.0000	            23878
  520.0000	            18482
  521.0000	            13738
  522.0000	            10722
  523.0000	             8604
  524.0000	             6983
  525.0000	             5906
  526.0000	             5025
  527.0000	             4213
  528.0000	             3626
  529.0000	             3073
  530.0000	             2864
  531.0000	             2486
  532.0000	             2284
  533.0000	             2069
  534.0000	             2229
  535.0000	             2062
  536.0000	             2163
  537.0000	             2087
  538.0000	             2108
  539.0000	             2157
  540.0000	             2218
  541.0000	             2134
  542.0000	             2215
  543.0000	             2231
  544.0000	             2312
  545.0000	             2442
  546.0000	             2247
  547.0000	             2432
  548.0000	             2413
  549.0000	             2460
  550.0000	             2144
  551.0000	             2195
  552.0000	             2162
  553.0000	             1953
  554.0000	             1884
  555.0000	             1817
  556.0000	             1894
  557.0000	             1837
  558.0000	             1736
  559.0000	             1755
  560.0000	             1674
  561.0000	             1696
  562.0000	             1819
  563.0000	             1966
  564.0000	             2014
  565.0000	             2034
  566.0000	             1980
  567.0000	             2178
  568.0000	             2130
  569.0000	             2136
  570.0000	             2275
  571.0000	             2288
  572.0000	             2367
  573.0000	             2328
  574.0000	             2442
  575.0000	             2517
  576.0000	             2504
  577.0000	             2507
  578.0000	             2645
  579.0000	             2586
  580.0000	             2801
  581.0000	             2736
  582.0000	             2793
  583.0000	             2745
  584.0000	             2591
  585.0000	             2641
  586.0000	             2903
  587.0000	             2956
  588.0000	             2973
  589.0000	             2949
  590.0000	             3086
  591.0000	             3026
  592.0000	             3079
  593.0000	             2997
  594.0000	             3049
  595.0000	             3302
  596.0000	             3324
  597.0000	             3271
  598.0000	             3568
  599.0000	             3536
  600.0000	             3735
  601.0000	             3491
  602.0000	             3568
  603.0000	             3495
  604.0000	             3581
  605.0000	             3741
  606.0000	             3860
  607.0000	             3563
  608.0000	             3656
  609.0000	             3618
  610.0000	             4006
  611.0000	             3813
  612.0000	             3819
  613.0000	             4079
  614.0000	             3918
  615.0000	             3963
  616.0000	             4041
  617.0000	             3885
  618.0000	             3795
  619.0000	             3751
  620.0000	             3981
  621.0000	             3811
  622.0000	             3933
  623.0000	             3933
  624.0000	             3903
  625.0000	             3884
  626.0000	             3996
  627.0000	             3766
  628.0000	             3808
  629.0000	             3934
  630.0000	             3891
  631.0000	             3880
  632.0000	             3960
  633.0000	             3946
  634.0000	             3815
  635.0000	             3798
  636.0000	             3842
  637.0000	             3775
  638.0000	             3588
  639.0000	             3771
  640.0000	             3633
  641.0000	             3479
  642.0000	             3576
  643.0000	             3650
  644.0000	             3534
  645.0000	             3432
  646.0000	             3558
  647.0000	             3439
  648.0000	             3376
  649.0000	             3313
  650.0000	             3201
  651.0000	             3151
  652.0000	             3244
  653.0000	             3091
  654.0000	             3201
  655.0000	             3144
  656.0000	             2996
  657.0000	             2920
  658.0000	             3080
  659.0000	             2969
  660.0000	             2769
  661.0000	             2850
  662.0000	             2656
  663.0000	             2851
  664.0000	             2733
  665.0000	             2791
  666.0000	             2712
  667.0000	             2513
  668.0000	             2452
  669.0000	             2433
  670.0000	             2311
  671.0000	             2435
  672.0000	             2379
  673.0000	             2211
  674.0000	             2162
  675.0000	             2243
  676.0000	             2176
  677.0000	             2177
  678.0000	             2056
  679.0000	             2083
  680.0000	             1889
  681.0000	             1852
  682.0000	             1879
  683.0000	             1836
  684.0000	             1716
  685.0000	             1712
  686.0000	             1701
  687.0000	             1742
  688.0000	             1745
  689.0000	             1681
  690.0000	             1651
  691.0000	             1596
  692.0000	             1636
  693.0000	             1661
  694.0000	             1533
  695.0000	             1572
  696.0000	             1578
  697.0000	             1481
  698.0000	             1470
  699.0000	             1482
  700.0000	             1340
  701.0000	             1415
  702.0000	             1404
  703.0000	             1335
  704.0000	             1292
  705.0000	             1190
  706.0000	             1250
  707.0000	             1146
  708.0000	             1055
  709.0000	              996
  710.0000	             1006
  711.0000	             1095
  712.0000	             1127
  713.0000	             1077
  714.0000	             1002
  715.0000	              858
  716.0000	              942
  717.0000	              912
  718.0000	              857
  719.0000	              838
  720.0000	              860
  721.0000	              805
  722.0000	              784
  723.0000	              796
  724.0000	              804
  725.0000	              669
  726.0000	              681
  727.0000	              676
  728.0000	              664
  729.0000	              600
  730.0000	              585
  731.0000	              588
  732.0000	              524
  733.0000	              626
  734.0000	              542
  735.0000	              504
  736.0000	              498
  737.0000	              511
  738.0000	              449
  739.0000	              494
  740.0000	              423
  741.0000	              470
  742.0000	              372
  743.0000	              434
  744.0000	              385
  745.0000	              435
  746.0000	              398
  747.0000	              372
  748.0000	              385
  749.0000	              367
  750.0000	              327
  751.0000	              376
  752.0000	              283
  753.0000	              384
  754.0000	              324
  755.0000	              302
  756.0000	              290
  757.0000	              247
  758.0000	              264
  759.0000	              306
  760.0000	              238
  761.0000	              260
  762.0000	              229
  763.0000	              278
  764.0000	              158
  765.0000	              234
  766.0000	              202
  767.0000	              200
  768.0000	              218
  769.0000	              201
  770.0000	              223
  771.0000	              247
  772.0000	              215
  773.0000	              178
  774.0000	              187
  775.0000	              165
  776.0000	              173
  777.0000	              146
  778.0000	              194
  779.0000	              160
  780.0000	              175
  781.0000	              134
  782.0000	              161
  783.0000	              169
  784.0000	              171
  785.0000	              121
  786.0000	              163
  787.0000	              150
  788.0000	              122
  789.0000	              148
  790.0000	              138
  791.0000	              130
  792.0000	              137
  793.0000	              127
  794.0000	              139
  795.0000	              138
  796.0000	              121
  797.0000	              127
  798.0000	              148
  799.0000	              107
  800.0000	              121
