4.410000000000000000e+02	3.725322918686690955e-60
4.420000000000000000e+02	2.272285020758743963e-58
4.430000000000000000e+02	1.308934749134181600e-56
4.440000000000000000e+02	7.120811668276879058e-55
4.450000000000000000e+02	3.658451588640206549e-53
4.460000000000000000e+02	1.775094326165816378e-51
4.470000000000000000e+02	8.133956953276009565e-50
4.480000000000000000e+02	3.519967179173884399e-48
4.490000000000000000e+02	1.438572218227042243e-46
4.500000000000000000e+02	5.552403691902873038e-45
4.510000000000000000e+02	2.023889094308811775e-43
4.520000000000000000e+02	6.967046299220192775e-42
4.530000000000000000e+02	2.264993674853583318e-40
4.540000000000000000e+02	6.954110719362579684e-39
4.550000000000000000e+02	2.016380639860937768e-37
4.560000000000000000e+02	5.521533957127250587e-36
4.570000000000000000e+02	1.427918059589298973e-34
4.580000000000000000e+02	3.487411022350901079e-33
4.590000000000000000e+02	8.043763550285787581e-32
4.600000000000000000e+02	1.752151950141888208e-30
4.610000000000000000e+02	3.604462797067056159e-29
4.620000000000000000e+02	7.002701896307528240e-28
4.630000000000000000e+02	1.284834060114926376e-26
4.640000000000000000e+02	2.226305470727229179e-25
4.650000000000000000e+02	3.643164459466698373e-24
4.660000000000000000e+02	5.630268550352313973e-23
4.670000000000000000e+02	8.217425099460002800e-22
4.680000000000000000e+02	1.132657770697679849e-20
4.690000000000000000e+02	1.474409002549527924e-19
4.700000000000000000e+02	1.812564832763516128e-18
4.710000000000000000e+02	2.104386154373966756e-17
4.720000000000000000e+02	2.307350824009081507e-16
4.730000000000000000e+02	2.389230991822444403e-15
4.740000000000000000e+02	2.336463264972241395e-14
4.750000000000000000e+02	2.157824329221550043e-13
4.760000000000000000e+02	1.882042923537610510e-12
4.770000000000000000e+02	1.550241194939715607e-11
4.780000000000000000e+02	1.205938979443564215e-10
4.790000000000000000e+02	8.859469212771674413e-10
4.800000000000000000e+02	6.146761805765833234e-09
4.810000000000000000e+02	4.027554030513764542e-08
4.820000000000000000e+02	2.492256154021801281e-07
4.830000000000000000e+02	1.456465793768164284e-06
4.840000000000000000e+02	8.038300028344484352e-06
4.850000000000000000e+02	4.189714650747298504e-05
4.860000000000000000e+02	2.062343438402488801e-04
4.870000000000000000e+02	9.587245392427574259e-04
4.880000000000000000e+02	4.209039567882798434e-03
4.890000000000000000e+02	1.745132810344285010e-02
4.900000000000000000e+02	6.833296567363085494e-02
4.910000000000000000e+02	2.526901807346383366e-01
4.920000000000000000e+02	8.824757355794282665e-01
4.930000000000000000e+02	2.910539451079388051e+00
4.940000000000000000e+02	9.065682775508278723e+00
4.950000000000000000e+02	2.666759535536668935e+01
4.960000000000000000e+02	7.408384349640881794e+01
4.970000000000000000e+02	1.943656276299746253e+02
4.980000000000000000e+02	4.815836511483333311e+02
4.990000000000000000e+02	1.126886861680213087e+03
5.000000000000000000e+02	2.490262945812400176e+03
5.010000000000000000e+02	5.197163838369651785e+03
5.020000000000000000e+02	1.024339499857498049e+04
5.030000000000000000e+02	1.906679698972009646e+04
5.040000000000000000e+02	3.351721116695307865e+04
5.050000000000000000e+02	5.564348457564662385e+04
5.060000000000000000e+02	8.724028449408107554e+04
5.070000000000000000e+02	1.291743062355046859e+05
5.080000000000000000e+02	1.806306783133729477e+05
5.090000000000000000e+02	2.385410894521816517e+05
5.100000000000000000e+02	2.975028938436344033e+05
5.110000000000000000e+02	3.504092008706058259e+05
5.120000000000000000e+02	3.897769188838698319e+05
5.130000000000000000e+02	4.094614743891542894e+05
5.140000000000000000e+02	4.062246601923146518e+05
5.150000000000000000e+02	3.806061773445276776e+05
5.160000000000000000e+02	3.367764323421117733e+05
5.170000000000000000e+02	2.814257690773590002e+05
5.180000000000000000e+02	2.220968207520951109e+05
5.190000000000000000e+02	1.655301591145658749e+05
5.200000000000000000e+02	1.165113498248756368e+05
5.210000000000000000e+02	7.744896983294952952e+04
5.220000000000000000e+02	4.862049407029971189e+04
5.230000000000000000e+02	2.882566933810369665e+04
5.240000000000000000e+02	1.613971062285389780e+04
5.250000000000000000e+02	8.534309674684833226e+03
5.260000000000000000e+02	4.261842165348200979e+03
5.270000000000000000e+02	2.009937887061237234e+03
5.280000000000000000e+02	8.952085511638889557e+02
5.290000000000000000e+02	3.765495368993787224e+02
5.300000000000000000e+02	1.495809627546971967e+02
5.310000000000000000e+02	5.611601737559617931e+01
5.320000000000000000e+02	1.988170696131782833e+01
5.330000000000000000e+02	6.652376278900947959e+00
5.340000000000000000e+02	2.102113951901272149e+00
5.350000000000000000e+02	6.273241597511542977e-01
5.360000000000000000e+02	1.768007418618054161e-01
5.370000000000000000e+02	4.705789137759428670e-02
5.380000000000000000e+02	1.182870370499780090e-02
5.390000000000000000e+02	2.808006794534334202e-03
5.400000000000000000e+02	6.295286007847718333e-04
5.410000000000000000e+02	1.332873973555065710e-04
5.420000000000000000e+02	2.665133818944647831e-05
5.430000000000000000e+02	5.032748907718619963e-06
5.440000000000000000e+02	8.975276088124608434e-07
5.450000000000000000e+02	1.511634101625777768e-07
5.460000000000000000e+02	2.404373071631523624e-08
5.470000000000000000e+02	3.611713898242759565e-09
5.480000000000000000e+02	5.123669829652031810e-10
5.490000000000000000e+02	6.864442033964214357e-11
5.500000000000000000e+02	8.685316689823239440e-12
5.510000000000000000e+02	1.037820836158526095e-12
5.520000000000000000e+02	1.171157821924447755e-13
5.530000000000000000e+02	1.248144224398048319e-14
5.540000000000000000e+02	1.256233672138356611e-15
5.550000000000000000e+02	1.194077181632125143e-16
5.560000000000000000e+02	1.071891134357093072e-17
5.570000000000000000e+02	9.087099199114712537e-19
5.580000000000000000e+02	7.275388172773068582e-20
5.590000000000000000e+02	5.501021988744859774e-21
5.600000000000000000e+02	3.928139501255914400e-22
5.610000000000000000e+02	2.649029134931576145e-23
5.620000000000000000e+02	1.687107971987126866e-24
5.630000000000000000e+02	1.014741286640818094e-25
5.640000000000000000e+02	5.764001624854068222e-27
5.650000000000000000e+02	3.092068943971840212e-28
5.660000000000000000e+02	1.566500556898142844e-29
5.670000000000000000e+02	7.494941525657746148e-31
5.680000000000000000e+02	3.386587138597933731e-32
5.690000000000000000e+02	1.445148814686642592e-33
5.700000000000000000e+02	5.823970920424655691e-35
5.710000000000000000e+02	2.216573491879798962e-36
5.720000000000000000e+02	7.967120449667833663e-38
5.730000000000000000e+02	2.704437450890000139e-39
5.740000000000000000e+02	8.669794634558397832e-41
5.750000000000000000e+02	2.624804667474639317e-42
5.760000000000000000e+02	7.504840723054285491e-44
5.770000000000000000e+02	2.026479804266497867e-45
5.780000000000000000e+02	5.167724954963245064e-47
5.790000000000000000e+02	1.244551327279712355e-48
5.800000000000000000e+02	2.830626344148132384e-50
5.810000000000000000e+02	6.080070103152297141e-52
5.820000000000000000e+02	1.233363067924232031e-53
5.830000000000000000e+02	2.362814368410220480e-55
5.840000000000000000e+02	4.274886388152040093e-57
5.850000000000000000e+02	7.304253909272755840e-59
5.860000000000000000e+02	1.178646190020081479e-60
5.870000000000000000e+02	1.796169684726179731e-62
5.880000000000000000e+02	2.585041849059611371e-64
5.890000000000000000e+02	3.513533549369550677e-66
5.900000000000000000e+02	4.510004153759668147e-68
5.910000000000000000e+02	5.467214199940831100e-70
5.920000000000000000e+02	6.259095061204213374e-72
5.930000000000000000e+02	6.767267068350077350e-74
5.940000000000000000e+02	6.909894159743045228e-76
5.950000000000000000e+02	6.663245042856979488e-78
5.960000000000000000e+02	6.068152477832270926e-80
5.970000000000000000e+02	5.218954320494507869e-82
5.980000000000000000e+02	4.239033188825610129e-84
5.990000000000000000e+02	3.251669882303438042e-86
6.000000000000000000e+02	2.355604583422749235e-88
6.010000000000000000e+02	1.611590294899131587e-90
6.020000000000000000e+02	1.041269641456667509e-92
6.030000000000000000e+02	6.353720119564950580e-95
6.040000000000000000e+02	3.661417597704964231e-97
6.050000000000000000e+02	1.992630434683001660e-99
6.060000000000000000e+02	1.024142914133473896e-101
6.070000000000000000e+02	4.971079175585696327e-104
6.080000000000000000e+02	2.278752229592035577e-106
6.090000000000000000e+02	9.865062552613949987e-109
6.100000000000000000e+02	4.033284809392048540e-111
6.110000000000000000e+02	1.557307045800546543e-113
6.120000000000000000e+02	5.678660653840897172e-116
6.130000000000000000e+02	1.955572384053657725e-118
6.140000000000000000e+02	6.360015660438065999e-121
6.150000000000000000e+02	1.953434190885668396e-123
6.160000000000000000e+02	5.666249519859625261e-126
6.170000000000000000e+02	1.552204421328403103e-128
6.180000000000000000e+02	4.015673989213657228e-131
6.190000000000000000e+02	9.811248811165944530e-134
6.200000000000000000e+02	2.263843714822847633e-136
6.210000000000000000e+02	4.933156631106337567e-139
6.220000000000000000e+02	1.015218862589055764e-141
6.230000000000000000e+02	1.973107567486411505e-144
6.240000000000000000e+02	3.621580613637661649e-147
6.250000000000000000e+02	6.277718849085096328e-150
6.260000000000000000e+02	1.027689400301284468e-152
6.270000000000000000e+02	1.588832823205830670e-155
6.280000000000000000e+02	2.319801579077093134e-158
6.290000000000000000e+02	3.198746227865804025e-161
6.300000000000000000e+02	4.165479910731390111e-164
6.310000000000000000e+02	5.122790699125698211e-167
6.320000000000000000e+02	5.949829092834117004e-170
6.330000000000000000e+02	6.526174470230074070e-173
6.340000000000000000e+02	6.760349977785271012e-176
6.350000000000000000e+02	6.613570534344789651e-179
6.360000000000000000e+02	6.110251837623132191e-182
6.370000000000000000e+02	5.331366533230811601e-185
6.380000000000000000e+02	4.393132307693714658e-188
6.390000000000000000e+02	3.418742061583110185e-191
6.400000000000000000e+02	2.512549912524115713e-194
6.410000000000000000e+02	1.743891139462986980e-197
6.420000000000000000e+02	1.143089813907589076e-200
6.430000000000000000e+02	7.076160076962952328e-204
6.440000000000000000e+02	4.136864095620534054e-207
6.450000000000000000e+02	2.284026660265449311e-210
6.460000000000000000e+02	1.190933178746627450e-213
6.470000000000000000e+02	5.864485689837075665e-217
6.480000000000000000e+02	2.727274033978404017e-220
6.490000000000000000e+02	1.197798968954577010e-223
6.500000000000000000e+02	4.968158041718583995e-227
6.510000000000000000e+02	1.946091164913418807e-230
6.520000000000000000e+02	7.199250244281470669e-234
6.530000000000000000e+02	2.515171881237593064e-237
6.540000000000000000e+02	8.298591348713533864e-241
6.550000000000000000e+02	2.585814695644370788e-244
6.560000000000000000e+02	7.609335453334690591e-248
6.570000000000000000e+02	2.114717559825265355e-251
6.580000000000000000e+02	5.550272721535565894e-255
6.590000000000000000e+02	1.375728029425851964e-258
6.600000000000000000e+02	3.220380280897850961e-262
6.610000000000000000e+02	7.119312262905292016e-266
6.620000000000000000e+02	1.486364198342905198e-269
6.630000000000000000e+02	2.930682293874569926e-273
6.640000000000000000e+02	5.457183475820040610e-277
6.650000000000000000e+02	9.596761038212106034e-281
6.660000000000000000e+02	1.593812089966382222e-284
6.670000000000000000e+02	2.499803451502886845e-288
6.680000000000000000e+02	3.702805672368570867e-292
6.690000000000000000e+02	5.179791610305781110e-296
6.700000000000000000e+02	6.843053980666883946e-300
6.710000000000000000e+02	8.537760235684330498e-304
6.720000000000000000e+02	1.005991366243682333e-307
6.730000000000000000e+02	1.119440169212860241e-311
6.740000000000000000e+02	1.175702508799119618e-315
6.750000000000000000e+02	0.000000000000000000e+00
6.760000000000000000e+02	0.000000000000000000e+00
6.770000000000000000e+02	0.000000000000000000e+00
6.780000000000000000e+02	0.000000000000000000e+00
6.790000000000000000e+02	0.000000000000000000e+00
6.800000000000000000e+02	0.000000000000000000e+00
6.810000000000000000e+02	0.000000000000000000e+00
6.820000000000000000e+02	0.000000000000000000e+00
6.830000000000000000e+02	0.000000000000000000e+00
6.840000000000000000e+02	0.000000000000000000e+00
6.850000000000000000e+02	0.000000000000000000e+00
6.860000000000000000e+02	0.000000000000000000e+00
6.870000000000000000e+02	0.000000000000000000e+00
6.880000000000000000e+02	0.000000000000000000e+00
6.890000000000000000e+02	0.000000000000000000e+00
6.900000000000000000e+02	0.000000000000000000e+00
6.910000000000000000e+02	0.000000000000000000e+00
6.920000000000000000e+02	0.000000000000000000e+00
6.930000000000000000e+02	0.000000000000000000e+00
6.940000000000000000e+02	0.000000000000000000e+00
6.950000000000000000e+02	0.000000000000000000e+00
6.960000000000000000e+02	0.000000000000000000e+00
6.970000000000000000e+02	0.000000000000000000e+00
6.980000000000000000e+02	0.000000000000000000e+00
6.990000000000000000e+02	0.000000000000000000e+00
7.000000000000000000e+02	0.000000000000000000e+00
7.010000000000000000e+02	0.000000000000000000e+00
7.020000000000000000e+02	0.000000000000000000e+00
7.030000000000000000e+02	0.000000000000000000e+00
7.040000000000000000e+02	0.000000000000000000e+00
7.050000000000000000e+02	0.000000000000000000e+00
7.060000000000000000e+02	0.000000000000000000e+00
7.070000000000000000e+02	0.000000000000000000e+00
7.080000000000000000e+02	0.000000000000000000e+00
7.090000000000000000e+02	0.000000000000000000e+00
7.100000000000000000e+02	0.000000000000000000e+00
7.110000000000000000e+02	0.000000000000000000e+00
7.120000000000000000e+02	0.000000000000000000e+00
7.130000000000000000e+02	0.000000000000000000e+00
7.140000000000000000e+02	0.000000000000000000e+00
7.150000000000000000e+02	0.000000000000000000e+00
7.160000000000000000e+02	0.000000000000000000e+00
7.170000000000000000e+02	0.000000000000000000e+00
7.180000000000000000e+02	0.000000000000000000e+00
7.190000000000000000e+02	0.000000000000000000e+00
7.200000000000000000e+02	0.000000000000000000e+00
7.210000000000000000e+02	0.000000000000000000e+00
7.220000000000000000e+02	0.000000000000000000e+00
7.230000000000000000e+02	0.000000000000000000e+00
7.240000000000000000e+02	0.000000000000000000e+00
7.250000000000000000e+02	0.000000000000000000e+00
7.260000000000000000e+02	0.000000000000000000e+00
7.270000000000000000e+02	0.000000000000000000e+00
7.280000000000000000e+02	0.000000000000000000e+00
7.290000000000000000e+02	0.000000000000000000e+00
7.300000000000000000e+02	0.000000000000000000e+00
7.310000000000000000e+02	0.000000000000000000e+00
7.320000000000000000e+02	0.000000000000000000e+00
7.330000000000000000e+02	0.000000000000000000e+00
7.340000000000000000e+02	0.000000000000000000e+00
7.350000000000000000e+02	0.000000000000000000e+00
7.360000000000000000e+02	0.000000000000000000e+00
7.370000000000000000e+02	0.000000000000000000e+00
7.380000000000000000e+02	0.000000000000000000e+00
7.390000000000000000e+02	0.000000000000000000e+00
7.400000000000000000e+02	0.000000000000000000e+00
7.410000000000000000e+02	0.000000000000000000e+00
7.420000000000000000e+02	0.000000000000000000e+00
7.430000000000000000e+02	0.000000000000000000e+00
7.440000000000000000e+02	0.000000000000000000e+00
7.450000000000000000e+02	0.000000000000000000e+00
7.460000000000000000e+02	0.000000000000000000e+00
7.470000000000000000e+02	0.000000000000000000e+00
7.480000000000000000e+02	0.000000000000000000e+00
7.490000000000000000e+02	0.000000000000000000e+00
7.500000000000000000e+02	0.000000000000000000e+00
7.510000000000000000e+02	0.000000000000000000e+00
7.520000000000000000e+02	0.000000000000000000e+00
7.530000000000000000e+02	0.000000000000000000e+00
7.540000000000000000e+02	0.000000000000000000e+00
7.550000000000000000e+02	0.000000000000000000e+00
7.560000000000000000e+02	0.000000000000000000e+00
7.570000000000000000e+02	0.000000000000000000e+00
7.580000000000000000e+02	0.000000000000000000e+00
7.590000000000000000e+02	0.000000000000000000e+00
7.600000000000000000e+02	0.000000000000000000e+00
7.610000000000000000e+02	0.000000000000000000e+00
7.620000000000000000e+02	0.000000000000000000e+00
7.630000000000000000e+02	0.000000000000000000e+00
7.640000000000000000e+02	0.000000000000000000e+00
7.650000000000000000e+02	0.000000000000000000e+00
7.660000000000000000e+02	0.000000000000000000e+00
7.670000000000000000e+02	0.000000000000000000e+00
7.680000000000000000e+02	0.000000000000000000e+00
7.690000000000000000e+02	0.000000000000000000e+00
7.700000000000000000e+02	0.000000000000000000e+00
7.710000000000000000e+02	0.000000000000000000e+00
7.720000000000000000e+02	0.000000000000000000e+00
7.730000000000000000e+02	0.000000000000000000e+00
7.740000000000000000e+02	0.000000000000000000e+00
7.750000000000000000e+02	0.000000000000000000e+00
7.760000000000000000e+02	0.000000000000000000e+00
7.770000000000000000e+02	0.000000000000000000e+00
7.780000000000000000e+02	0.000000000000000000e+00
7.790000000000000000e+02	0.000000000000000000e+00
7.800000000000000000e+02	0.000000000000000000e+00
7.810000000000000000e+02	0.000000000000000000e+00
7.820000000000000000e+02	0.000000000000000000e+00
7.830000000000000000e+02	0.000000000000000000e+00
7.840000000000000000e+02	0.000000000000000000e+00
7.850000000000000000e+02	0.000000000000000000e+00
7.860000000000000000e+02	0.000000000000000000e+00
7.870000000000000000e+02	0.000000000000000000e+00
7.880000000000000000e+02	0.000000000000000000e+00
7.890000000000000000e+02	0.000000000000000000e+00
7.900000000000000000e+02	0.000000000000000000e+00
7.910000000000000000e+02	0.000000000000000000e+00
7.920000000000000000e+02	0.000000000000000000e+00
7.930000000000000000e+02	0.000000000000000000e+00
7.940000000000000000e+02	0.000000000000000000e+00
7.950000000000000000e+02	0.000000000000000000e+00
7.960000000000000000e+02	0.000000000000000000e+00
7.970000000000000000e+02	0.000000000000000000e+00
7.980000000000000000e+02	0.000000000000000000e+00
7.990000000000000000e+02	0.000000000000000000e+00
8.000000000000000000e+02	0.000000000000000000e+00
8.010000000000000000e+02	0.000000000000000000e+00
8.020000000000000000e+02	0.000000000000000000e+00
8.030000000000000000e+02	0.000000000000000000e+00
8.040000000000000000e+02	0.000000000000000000e+00
8.050000000000000000e+02	0.000000000000000000e+00
8.060000000000000000e+02	0.000000000000000000e+00
8.070000000000000000e+02	0.000000000000000000e+00
8.080000000000000000e+02	0.000000000000000000e+00
8.090000000000000000e+02	0.000000000000000000e+00
8.100000000000000000e+02	0.000000000000000000e+00
8.110000000000000000e+02	0.000000000000000000e+00
8.120000000000000000e+02	0.000000000000000000e+00
8.130000000000000000e+02	0.000000000000000000e+00
8.140000000000000000e+02	0.000000000000000000e+00
8.150000000000000000e+02	0.000000000000000000e+00
8.160000000000000000e+02	0.000000000000000000e+00
8.170000000000000000e+02	0.000000000000000000e+00
8.180000000000000000e+02	0.000000000000000000e+00
8.190000000000000000e+02	0.000000000000000000e+00
8.200000000000000000e+02	0.000000000000000000e+00
8.210000000000000000e+02	0.000000000000000000e+00
8.220000000000000000e+02	0.000000000000000000e+00
8.230000000000000000e+02	0.000000000000000000e+00
8.240000000000000000e+02	0.000000000000000000e+00
8.250000000000000000e+02	0.000000000000000000e+00
8.260000000000000000e+02	0.000000000000000000e+00
8.270000000000000000e+02	0.000000000000000000e+00
8.280000000000000000e+02	0.000000000000000000e+00
8.290000000000000000e+02	0.000000000000000000e+00
8.300000000000000000e+02	0.000000000000000000e+00
8.310000000000000000e+02	0.000000000000000000e+00
8.320000000000000000e+02	0.000000000000000000e+00
8.330000000000000000e+02	0.000000000000000000e+00
8.340000000000000000e+02	0.000000000000000000e+00
8.350000000000000000e+02	0.000000000000000000e+00
8.360000000000000000e+02	0.000000000000000000e+00
8.370000000000000000e+02	0.000000000000000000e+00
8.380000000000000000e+02	0.000000000000000000e+00
8.390000000000000000e+02	0.000000000000000000e+00
8.400000000000000000e+02	0.000000000000000000e+00
8.410000000000000000e+02	0.000000000000000000e+00
8.420000000000000000e+02	0.000000000000000000e+00
8.430000000000000000e+02	0.000000000000000000e+00
8.440000000000000000e+02	0.000000000000000000e+00
8.450000000000000000e+02	0.000000000000000000e+00
8.460000000000000000e+02	0.000000000000000000e+00
8.470000000000000000e+02	0.000000000000000000e+00
8.480000000000000000e+02	0.000000000000000000e+00
8.490000000000000000e+02	0.000000000000000000e+00
8.500000000000000000e+02	0.000000000000000000e+00
8.510000000000000000e+02	0.000000000000000000e+00
8.520000000000000000e+02	0.000000000000000000e+00
8.530000000000000000e+02	0.000000000000000000e+00
8.540000000000000000e+02	0.000000000000000000e+00
8.550000000000000000e+02	0.000000000000000000e+00
8.560000000000000000e+02	0.000000000000000000e+00
8.570000000000000000e+02	0.000000000000000000e+00
8.580000000000000000e+02	0.000000000000000000e+00
8.590000000000000000e+02	0.000000000000000000e+00
8.600000000000000000e+02	0.000000000000000000e+00
8.610000000000000000e+02	0.000000000000000000e+00
8.620000000000000000e+02	0.000000000000000000e+00
8.630000000000000000e+02	0.000000000000000000e+00
8.640000000000000000e+02	0.000000000000000000e+00
8.650000000000000000e+02	0.000000000000000000e+00
8.660000000000000000e+02	0.000000000000000000e+00
8.670000000000000000e+02	0.000000000000000000e+00
8.680000000000000000e+02	0.000000000000000000e+00
8.690000000000000000e+02	0.000000000000000000e+00
8.700000000000000000e+02	0.000000000000000000e+00
8.710000000000000000e+02	0.000000000000000000e+00
8.720000000000000000e+02	0.000000000000000000e+00
8.730000000000000000e+02	0.000000000000000000e+00
8.740000000000000000e+02	0.000000000000000000e+00
8.750000000000000000e+02	0.000000000000000000e+00
8.760000000000000000e+02	0.000000000000000000e+00
8.770000000000000000e+02	0.000000000000000000e+00
8.780000000000000000e+02	0.000000000000000000e+00
8.790000000000000000e+02	0.000000000000000000e+00
8.800000000000000000e+02	0.000000000000000000e+00
8.810000000000000000e+02	0.000000000000000000e+00
8.820000000000000000e+02	0.000000000000000000e+00
8.830000000000000000e+02	0.000000000000000000e+00
8.840000000000000000e+02	0.000000000000000000e+00
8.850000000000000000e+02	0.000000000000000000e+00
8.860000000000000000e+02	0.000000000000000000e+00
8.870000000000000000e+02	0.000000000000000000e+00
8.880000000000000000e+02	0.000000000000000000e+00
8.890000000000000000e+02	0.000000000000000000e+00
8.900000000000000000e+02	0.000000000000000000e+00
8.910000000000000000e+02	0.000000000000000000e+00
8.920000000000000000e+02	0.000000000000000000e+00
8.930000000000000000e+02	0.000000000000000000e+00
8.940000000000000000e+02	0.000000000000000000e+00
8.950000000000000000e+02	0.000000000000000000e+00
8.960000000000000000e+02	0.000000000000000000e+00
8.970000000000000000e+02	0.000000000000000000e+00
8.980000000000000000e+02	0.000000000000000000e+00
8.990000000000000000e+02	0.000000000000000000e+00
9.000000000000000000e+02	0.000000000000000000e+00
9.010000000000000000e+02	0.000000000000000000e+00
9.020000000000000000e+02	0.000000000000000000e+00
9.030000000000000000e+02	0.000000000000000000e+00
9.040000000000000000e+02	0.000000000000000000e+00
9.050000000000000000e+02	0.000000000000000000e+00
9.060000000000000000e+02	0.000000000000000000e+00
9.070000000000000000e+02	0.000000000000000000e+00
9.080000000000000000e+02	0.000000000000000000e+00
9.090000000000000000e+02	0.000000000000000000e+00
9.100000000000000000e+02	0.000000000000000000e+00
9.110000000000000000e+02	0.000000000000000000e+00
9.120000000000000000e+02	0.000000000000000000e+00
9.130000000000000000e+02	0.000000000000000000e+00
9.140000000000000000e+02	0.000000000000000000e+00
9.150000000000000000e+02	0.000000000000000000e+00
9.160000000000000000e+02	0.000000000000000000e+00
9.170000000000000000e+02	0.000000000000000000e+00
9.180000000000000000e+02	0.000000000000000000e+00
9.190000000000000000e+02	0.000000000000000000e+00
9.200000000000000000e+02	0.000000000000000000e+00
9.210000000000000000e+02	0.000000000000000000e+00
9.220000000000000000e+02	0.000000000000000000e+00
9.230000000000000000e+02	0.000000000000000000e+00
9.240000000000000000e+02	0.000000000000000000e+00
9.250000000000000000e+02	0.000000000000000000e+00
9.260000000000000000e+02	0.000000000000000000e+00
9.270000000000000000e+02	0.000000000000000000e+00
9.280000000000000000e+02	0.000000000000000000e+00
9.290000000000000000e+02	0.000000000000000000e+00
9.300000000000000000e+02	0.000000000000000000e+00
9.310000000000000000e+02	0.000000000000000000e+00
9.320000000000000000e+02	0.000000000000000000e+00
9.330000000000000000e+02	0.000000000000000000e+00
9.340000000000000000e+02	0.000000000000000000e+00
9.350000000000000000e+02	0.000000000000000000e+00
9.360000000000000000e+02	0.000000000000000000e+00
9.370000000000000000e+02	0.000000000000000000e+00
9.380000000000000000e+02	0.000000000000000000e+00
9.390000000000000000e+02	0.000000000000000000e+00
9.400000000000000000e+02	0.000000000000000000e+00
9.410000000000000000e+02	0.000000000000000000e+00
9.420000000000000000e+02	0.000000000000000000e+00
9.430000000000000000e+02	0.000000000000000000e+00
9.440000000000000000e+02	0.000000000000000000e+00
9.450000000000000000e+02	0.000000000000000000e+00
9.460000000000000000e+02	0.000000000000000000e+00
9.470000000000000000e+02	0.000000000000000000e+00
9.480000000000000000e+02	0.000000000000000000e+00
9.490000000000000000e+02	0.000000000000000000e+00
9.500000000000000000e+02	0.000000000000000000e+00
9.510000000000000000e+02	0.000000000000000000e+00
9.520000000000000000e+02	0.000000000000000000e+00
9.530000000000000000e+02	0.000000000000000000e+00
9.540000000000000000e+02	0.000000000000000000e+00
9.550000000000000000e+02	0.000000000000000000e+00
9.560000000000000000e+02	0.000000000000000000e+00
9.570000000000000000e+02	0.000000000000000000e+00
9.580000000000000000e+02	0.000000000000000000e+00
9.590000000000000000e+02	0.000000000000000000e+00
9.600000000000000000e+02	0.000000000000000000e+00
9.610000000000000000e+02	0.000000000000000000e+00
9.620000000000000000e+02	0.000000000000000000e+00
9.630000000000000000e+02	0.000000000000000000e+00
9.640000000000000000e+02	0.000000000000000000e+00
9.650000000000000000e+02	0.000000000000000000e+00
9.660000000000000000e+02	0.000000000000000000e+00
9.670000000000000000e+02	0.000000000000000000e+00
9.680000000000000000e+02	0.000000000000000000e+00
9.690000000000000000e+02	0.000000000000000000e+00
9.700000000000000000e+02	0.000000000000000000e+00
9.710000000000000000e+02	0.000000000000000000e+00
9.720000000000000000e+02	0.000000000000000000e+00
9.730000000000000000e+02	0.000000000000000000e+00
9.740000000000000000e+02	0.000000000000000000e+00
9.750000000000000000e+02	0.000000000000000000e+00
9.760000000000000000e+02	0.000000000000000000e+00
9.770000000000000000e+02	0.000000000000000000e+00
9.780000000000000000e+02	0.000000000000000000e+00
9.790000000000000000e+02	0.000000000000000000e+00
9.800000000000000000e+02	0.000000000000000000e+00
9.810000000000000000e+02	0.000000000000000000e+00
9.820000000000000000e+02	0.000000000000000000e+00
9.830000000000000000e+02	0.000000000000000000e+00
9.840000000000000000e+02	0.000000000000000000e+00
9.850000000000000000e+02	0.000000000000000000e+00
9.860000000000000000e+02	0.000000000000000000e+00
9.870000000000000000e+02	0.000000000000000000e+00
9.880000000000000000e+02	0.000000000000000000e+00
9.890000000000000000e+02	0.000000000000000000e+00
9.900000000000000000e+02	0.000000000000000000e+00
9.910000000000000000e+02	0.000000000000000000e+00
9.920000000000000000e+02	0.000000000000000000e+00
9.930000000000000000e+02	0.000000000000000000e+00
9.940000000000000000e+02	0.000000000000000000e+00
9.950000000000000000e+02	0.000000000000000000e+00
9.960000000000000000e+02	0.000000000000000000e+00
9.970000000000000000e+02	0.000000000000000000e+00
9.980000000000000000e+02	0.000000000000000000e+00
9.990000000000000000e+02	0.000000000000000000e+00
1.000000000000000000e+03	0.000000000000000000e+00
