nm, A
800.000000, 0.034906
799.000000, 0.035361
798.000000, 0.035545
797.000000, 0.035515
796.000000, 0.034878
795.000000, 0.033907
794.000000, 0.034462
793.000000, 0.034250
792.000000, 0.034275
791.000000, 0.034253
790.000000, 0.034025
789.000000, 0.033886
788.000000, 0.035436
787.000000, 0.034713
786.000000, 0.033738
785.000000, 0.034430
784.000000, 0.035124
783.000000, 0.034869
782.000000, 0.034889
781.000000, 0.034999
780.000000, 0.035119
779.000000, 0.035944
778.000000, 0.034584
777.000000, 0.034652
776.000000, 0.035611
775.000000, 0.035131
774.000000, 0.036085
773.000000, 0.036125
772.000000, 0.036082
771.000000, 0.036458
770.000000, 0.037299
769.000000, 0.037647
768.000000, 0.037471
767.000000, 0.037692
766.000000, 0.039018
765.000000, 0.038656
764.000000, 0.038221
763.000000, 0.038465
762.000000, 0.039981
761.000000, 0.040754
760.000000, 0.040330
759.000000, 0.039436
758.000000, 0.040256
757.000000, 0.040769
756.000000, 0.041000
755.000000, 0.040305
754.000000, 0.040292
753.000000, 0.041700
752.000000, 0.042126
751.000000, 0.041656
750.000000, 0.041130
749.000000, 0.042706
748.000000, 0.042718
747.000000, 0.042155
746.000000, 0.041772
745.000000, 0.042072
744.000000, 0.042479
743.000000, 0.042540
742.000000, 0.041806
741.000000, 0.041015
740.000000, 0.039736
739.000000, 0.039965
738.000000, 0.040048
737.000000, 0.039496
736.000000, 0.038823
735.000000, 0.038835
734.000000, 0.039436
733.000000, 0.039965
732.000000, 0.039789
731.000000, 0.039633
730.000000, 0.039329
729.000000, 0.039081
728.000000, 0.038958
727.000000, 0.039090
726.000000, 0.038357
725.000000, 0.038786
724.000000, 0.039398
723.000000, 0.039193
722.000000, 0.039201
721.000000, 0.039345
720.000000, 0.038944
719.000000, 0.039000
718.000000, 0.038837
717.000000, 0.039806
716.000000, 0.039611
715.000000, 0.039852
714.000000, 0.039347
713.000000, 0.039194
712.000000, 0.039231
711.000000, 0.039667
710.000000, 0.039877
709.000000, 0.040251
708.000000, 0.039689
707.000000, 0.039253
706.000000, 0.038484
705.000000, 0.039570
704.000000, 0.040251
703.000000, 0.039704
702.000000, 0.039771
701.000000, 0.039770
700.000000, 0.040576
699.000000, 0.040810
698.000000, 0.040286
697.000000, 0.040150
696.000000, 0.039999
695.000000, 0.039935
694.000000, 0.039804
693.000000, 0.040236
692.000000, 0.039688
691.000000, 0.039271
690.000000, 0.039857
689.000000, 0.039821
688.000000, 0.039809
687.000000, 0.040145
686.000000, 0.040268
685.000000, 0.039842
684.000000, 0.039648
683.000000, 0.039291
682.000000, 0.039960
681.000000, 0.040098
680.000000, 0.039895
679.000000, 0.040283
678.000000, 0.040014
677.000000, 0.039521
676.000000, 0.038997
675.000000, 0.039194
674.000000, 0.040157
673.000000, 0.039628
672.000000, 0.039916
671.000000, 0.039902
670.000000, 0.039114
669.000000, 0.039579
668.000000, 0.039677
667.000000, 0.039294
666.000000, 0.038935
665.000000, 0.039384
664.000000, 0.039268
663.000000, 0.038696
662.000000, 0.039180
661.000000, 0.039555
660.000000, 0.039176
659.000000, 0.039080
658.000000, 0.039241
657.000000, 0.039019
656.000000, 0.038874
655.000000, 0.038718
654.000000, 0.039066
653.000000, 0.038458
652.000000, 0.038038
651.000000, 0.038312
650.000000, 0.038877
649.000000, 0.038642
648.000000, 0.038099
647.000000, 0.038343
646.000000, 0.038651
645.000000, 0.038726
644.000000, 0.039031
643.000000, 0.038330
642.000000, 0.037637
641.000000, 0.038062
640.000000, 0.037833
639.000000, 0.037443
638.000000, 0.037193
637.000000, 0.037342
636.000000, 0.038322
635.000000, 0.037271
634.000000, 0.037333
633.000000, 0.037618
632.000000, 0.037179
631.000000, 0.036872
630.000000, 0.037384
629.000000, 0.037292
628.000000, 0.036393
627.000000, 0.036139
626.000000, 0.036074
625.000000, 0.036273
624.000000, 0.036128
623.000000, 0.036614
622.000000, 0.036390
621.000000, 0.035932
620.000000, 0.035581
619.000000, 0.035160
618.000000, 0.035077
617.000000, 0.035111
616.000000, 0.034558
615.000000, 0.034312
614.000000, 0.034578
613.000000, 0.034053
612.000000, 0.035261
611.000000, 0.035079
610.000000, 0.034793
609.000000, 0.034046
608.000000, 0.034475
607.000000, 0.034184
606.000000, 0.033970
605.000000, 0.034792
604.000000, 0.034119
603.000000, 0.034308
602.000000, 0.034452
601.000000, 0.033263
600.000000, 0.033328
599.000000, 0.032735
598.000000, 0.034000
597.000000, 0.033807
596.000000, 0.033096
595.000000, 0.033803
594.000000, 0.032705
593.000000, 0.033014
592.000000, 0.033376
591.000000, 0.032841
590.000000, 0.032234
589.000000, 0.032677
588.000000, 0.032581
587.000000, 0.032508
586.000000, 0.032417
585.000000, 0.031980
584.000000, 0.032301
583.000000, 0.032564
582.000000, 0.032916
581.000000, 0.032516
580.000000, 0.032412
579.000000, 0.031624
578.000000, 0.032548
577.000000, 0.031764
576.000000, 0.031807
575.000000, 0.031481
574.000000, 0.032274
573.000000, 0.031999
572.000000, 0.031782
571.000000, 0.031619
570.000000, 0.031796
569.000000, 0.031200
568.000000, 0.031974
567.000000, 0.031995
566.000000, 0.031133
565.000000, 0.031368
564.000000, 0.031591
563.000000, 0.031588
562.000000, 0.031100
561.000000, 0.031327
560.000000, 0.031430
559.000000, 0.030784
558.000000, 0.031074
557.000000, 0.031118
556.000000, 0.029635
555.000000, 0.030980
554.000000, 0.030258
553.000000, 0.030863
552.000000, 0.031097
551.000000, 0.029856
550.000000, 0.030047
549.000000, 0.030033
548.000000, 0.031013
547.000000, 0.031059
546.000000, 0.029724
545.000000, 0.030699
544.000000, 0.029884
543.000000, 0.030110
542.000000, 0.029692
541.000000, 0.030150
540.000000, 0.030473
539.000000, 0.031272
538.000000, 0.030271
537.000000, 0.031258
536.000000, 0.030676
535.000000, 0.030556
534.000000, 0.031257
533.000000, 0.030915
532.000000, 0.031350
531.000000, 0.031258
530.000000, 0.032059
529.000000, 0.031075
528.000000, 0.032044
527.000000, 0.032455
526.000000, 0.032199
525.000000, 0.032756
524.000000, 0.032556
523.000000, 0.032095
522.000000, 0.033344
521.000000, 0.033647
520.000000, 0.033356
519.000000, 0.033908
518.000000, 0.034929
517.000000, 0.034790
516.000000, 0.034879
515.000000, 0.035551
514.000000, 0.035847
513.000000, 0.036170
512.000000, 0.035919
511.000000, 0.036019
510.000000, 0.036209
509.000000, 0.036210
508.000000, 0.036707
507.000000, 0.034769
506.000000, 0.036171
505.000000, 0.035840
504.000000, 0.034703
503.000000, 0.035516
502.000000, 0.035803
501.000000, 0.034853
500.000000, 0.034612
499.000000, 0.035532
498.000000, 0.035079
497.000000, 0.034488
496.000000, 0.034172
495.000000, 0.033348
494.000000, 0.033419
493.000000, 0.033069
492.000000, 0.034196
491.000000, 0.034227
490.000000, 0.033458
489.000000, 0.033367
488.000000, 0.033470
487.000000, 0.032551
486.000000, 0.032505
485.000000, 0.032038
484.000000, 0.031832
483.000000, 0.031627
482.000000, 0.032600
481.000000, 0.032979
480.000000, 0.033079
479.000000, 0.033664
478.000000, 0.034083
477.000000, 0.033966
476.000000, 0.034190
475.000000, 0.034953
474.000000, 0.034636
473.000000, 0.035204
472.000000, 0.035653
471.000000, 0.035711
470.000000, 0.036359
469.000000, 0.036547
468.000000, 0.036139
467.000000, 0.036551
466.000000, 0.036568
465.000000, 0.036688
464.000000, 0.036804
463.000000, 0.037214
462.000000, 0.037307
461.000000, 0.037166
460.000000, 0.037074
459.000000, 0.037552
458.000000, 0.037300
457.000000, 0.036339
456.000000, 0.035905
455.000000, 0.037045
454.000000, 0.037300
453.000000, 0.037072
452.000000, 0.036560
451.000000, 0.036614
450.000000, 0.036469
449.000000, 0.036373
448.000000, 0.036782
447.000000, 0.036722
446.000000, 0.036765
445.000000, 0.036598
444.000000, 0.035966
443.000000, 0.036296
442.000000, 0.037014
441.000000, 0.037880
440.000000, 0.037274
439.000000, 0.036151
438.000000, 0.035627
437.000000, 0.036801
436.000000, 0.037641
435.000000, 0.037251
434.000000, 0.036924
433.000000, 0.037125
432.000000, 0.037808
431.000000, 0.037983
430.000000, 0.037456
429.000000, 0.037077
428.000000, 0.037838
427.000000, 0.037790
426.000000, 0.037841
425.000000, 0.038582
424.000000, 0.037723
423.000000, 0.037610
422.000000, 0.038682
421.000000, 0.038841
420.000000, 0.038306
419.000000, 0.038365
418.000000, 0.039563
417.000000, 0.039479
416.000000, 0.039652
415.000000, 0.039987
414.000000, 0.039617
413.000000, 0.039262
412.000000, 0.039943
411.000000, 0.039815
410.000000, 0.039629
409.000000, 0.040043
408.000000, 0.039593
407.000000, 0.039510
406.000000, 0.039974
405.000000, 0.039934
404.000000, 0.040162
403.000000, 0.039996
402.000000, 0.039726
401.000000, 0.040263
400.000000, 0.040300
399.000000, 0.040586
398.000000, 0.041202
397.000000, 0.040350
396.000000, 0.040945
395.000000, 0.041321
394.000000, 0.041241
393.000000, 0.040976
392.000000, 0.041497
391.000000, 0.041310
390.000000, 0.041407
389.000000, 0.041320
388.000000, 0.041624
387.000000, 0.042193
386.000000, 0.042364
385.000000, 0.041628
384.000000, 0.041941
383.000000, 0.041746
382.000000, 0.041879
381.000000, 0.043216
380.000000, 0.043297
379.000000, 0.043450
378.000000, 0.041133
377.000000, 0.039627
376.000000, 0.039826
375.000000, 0.040523
374.000000, 0.041176
373.000000, 0.041419
372.000000, 0.041544
371.000000, 0.041669
370.000000, 0.042268
369.000000, 0.041736
368.000000, 0.041712
367.000000, 0.041768
366.000000, 0.042073
365.000000, 0.042771
364.000000, 0.042726
363.000000, 0.042281
362.000000, 0.042507
361.000000, 0.042701
360.000000, 0.042633
359.000000, 0.042690
358.000000, 0.043129
357.000000, 0.043154
356.000000, 0.042799
355.000000, 0.043183
354.000000, 0.042947
353.000000, 0.043146
352.000000, 0.042936
351.000000, 0.043901
350.000000, 0.044274
349.000000, 0.043845
348.000000, 0.044309
347.000000, 0.044263
346.000000, 0.043748
345.000000, 0.044010
344.000000, 0.044426
343.000000, 0.044099
342.000000, 0.043416
341.000000, 0.045012
340.000000, 0.045417
339.000000, 0.045302
338.000000, 0.045714
337.000000, 0.045580
336.000000, 0.044754
335.000000, 0.045868
334.000000, 0.045709
333.000000, 0.046270
332.000000, 0.045337
331.000000, 0.045234
330.000000, 0.045631
329.000000, 0.045708
328.000000, 0.046745
327.000000, 0.046883
326.000000, 0.046219
325.000000, 0.047049
324.000000, 0.046320
323.000000, 0.046748
322.000000, 0.046776
321.000000, 0.046822
320.000000, 0.047497
319.000000, 0.047581
318.000000, 0.057430
317.000000, 0.057899
316.000000, 0.057790
315.000000, 0.059077
314.000000, 0.059167
313.000000, 0.059838
312.000000, 0.058949
311.000000, 0.059020
310.000000, 0.059946
309.000000, 0.060369
308.000000, 0.061414
307.000000, 0.061693
306.000000, 0.060633
305.000000, 0.061437
304.000000, 0.061739
303.000000, 0.061082
302.000000, 0.061938
301.000000, 0.061548
300.000000, 0.062162
