nm, A
800.000000, 0.033556
799.000000, 0.033299
798.000000, 0.033242
797.000000, 0.033594
796.000000, 0.033458
795.000000, 0.032733
794.000000, 0.032902
793.000000, 0.034211
792.000000, 0.033018
791.000000, 0.032654
790.000000, 0.032769
789.000000, 0.033153
788.000000, 0.032227
787.000000, 0.032409
786.000000, 0.033598
785.000000, 0.034143
784.000000, 0.033043
783.000000, 0.032814
782.000000, 0.033529
781.000000, 0.033162
780.000000, 0.033669
779.000000, 0.033267
778.000000, 0.033566
777.000000, 0.034456
776.000000, 0.034086
775.000000, 0.033751
774.000000, 0.034118
773.000000, 0.034378
772.000000, 0.035264
771.000000, 0.035285
770.000000, 0.035236
769.000000, 0.035018
768.000000, 0.035000
767.000000, 0.036963
766.000000, 0.037749
765.000000, 0.038168
764.000000, 0.037582
763.000000, 0.037286
762.000000, 0.037620
761.000000, 0.037866
760.000000, 0.038683
759.000000, 0.038842
758.000000, 0.038720
757.000000, 0.039241
756.000000, 0.037944
755.000000, 0.038528
754.000000, 0.039586
753.000000, 0.039036
752.000000, 0.039430
751.000000, 0.039196
750.000000, 0.039901
749.000000, 0.040364
748.000000, 0.040744
747.000000, 0.040839
746.000000, 0.041200
745.000000, 0.040988
744.000000, 0.040348
743.000000, 0.039265
742.000000, 0.039327
741.000000, 0.039207
740.000000, 0.038917
739.000000, 0.038363
738.000000, 0.037949
737.000000, 0.038245
736.000000, 0.038519
735.000000, 0.038102
734.000000, 0.037963
733.000000, 0.037279
732.000000, 0.037919
731.000000, 0.037473
730.000000, 0.037017
729.000000, 0.037621
728.000000, 0.037612
727.000000, 0.037433
726.000000, 0.036956
725.000000, 0.037882
724.000000, 0.037410
723.000000, 0.037926
722.000000, 0.037233
721.000000, 0.037726
720.000000, 0.037666
719.000000, 0.038071
718.000000, 0.037701
717.000000, 0.037836
716.000000, 0.038066
715.000000, 0.038206
714.000000, 0.037330
713.000000, 0.036943
712.000000, 0.037090
711.000000, 0.037316
710.000000, 0.037614
709.000000, 0.038085
708.000000, 0.038810
707.000000, 0.037798
706.000000, 0.037324
705.000000, 0.037250
704.000000, 0.037529
703.000000, 0.038042
702.000000, 0.037729
701.000000, 0.037760
700.000000, 0.038336
699.000000, 0.037908
698.000000, 0.037179
697.000000, 0.037712
696.000000, 0.038337
695.000000, 0.038338
694.000000, 0.038093
693.000000, 0.038372
692.000000, 0.038633
691.000000, 0.038395
690.000000, 0.038026
689.000000, 0.038016
688.000000, 0.038334
687.000000, 0.037645
686.000000, 0.037276
685.000000, 0.037527
684.000000, 0.037319
683.000000, 0.036790
682.000000, 0.037042
681.000000, 0.038135
680.000000, 0.038019
679.000000, 0.037376
678.000000, 0.037280
677.000000, 0.036680
676.000000, 0.037038
675.000000, 0.037758
674.000000, 0.037390
673.000000, 0.037605
672.000000, 0.037558
671.000000, 0.036692
670.000000, 0.036627
669.000000, 0.036815
668.000000, 0.037211
667.000000, 0.037292
666.000000, 0.037327
665.000000, 0.037675
664.000000, 0.037582
663.000000, 0.036677
662.000000, 0.036370
661.000000, 0.037476
660.000000, 0.037482
659.000000, 0.036727
658.000000, 0.036706
657.000000, 0.036954
656.000000, 0.036223
655.000000, 0.036278
654.000000, 0.036070
653.000000, 0.036702
652.000000, 0.037327
651.000000, 0.036946
650.000000, 0.036748
649.000000, 0.036566
648.000000, 0.036670
647.000000, 0.036800
646.000000, 0.036650
645.000000, 0.035927
644.000000, 0.035607
643.000000, 0.035589
642.000000, 0.035819
641.000000, 0.035351
640.000000, 0.034923
639.000000, 0.036038
638.000000, 0.036525
637.000000, 0.036099
636.000000, 0.035410
635.000000, 0.035115
634.000000, 0.034787
633.000000, 0.034604
632.000000, 0.034930
631.000000, 0.035238
630.000000, 0.035015
629.000000, 0.035136
628.000000, 0.034236
627.000000, 0.033578
626.000000, 0.033347
625.000000, 0.033318
624.000000, 0.033973
623.000000, 0.034128
622.000000, 0.033259
621.000000, 0.033862
620.000000, 0.034122
619.000000, 0.033839
618.000000, 0.033537
617.000000, 0.032854
616.000000, 0.032460
615.000000, 0.033304
614.000000, 0.033033
613.000000, 0.033036
612.000000, 0.033264
611.000000, 0.031954
610.000000, 0.031640
609.000000, 0.032274
608.000000, 0.031734
607.000000, 0.031759
606.000000, 0.031058
605.000000, 0.031621
604.000000, 0.031411
603.000000, 0.031732
602.000000, 0.031296
601.000000, 0.030739
600.000000, 0.030933
599.000000, 0.031767
598.000000, 0.030377
597.000000, 0.030888
596.000000, 0.031057
595.000000, 0.030786
594.000000, 0.030785
593.000000, 0.030694
592.000000, 0.030161
591.000000, 0.030400
590.000000, 0.030411
589.000000, 0.030533
588.000000, 0.030168
587.000000, 0.030185
586.000000, 0.029276
585.000000, 0.030190
584.000000, 0.030549
583.000000, 0.030137
582.000000, 0.029802
581.000000, 0.030517
580.000000, 0.030064
579.000000, 0.030087
578.000000, 0.030032
577.000000, 0.029528
576.000000, 0.029596
575.000000, 0.029938
574.000000, 0.029233
573.000000, 0.028953
572.000000, 0.029230
571.000000, 0.029467
570.000000, 0.029057
569.000000, 0.027914
568.000000, 0.028580
567.000000, 0.028947
566.000000, 0.028680
565.000000, 0.028388
564.000000, 0.029120
563.000000, 0.028195
562.000000, 0.029298
561.000000, 0.028596
560.000000, 0.028907
559.000000, 0.028247
558.000000, 0.028503
557.000000, 0.028278
556.000000, 0.028275
555.000000, 0.027827
554.000000, 0.028457
553.000000, 0.028058
552.000000, 0.028403
551.000000, 0.027341
550.000000, 0.028134
549.000000, 0.027669
548.000000, 0.028365
547.000000, 0.027761
546.000000, 0.028077
545.000000, 0.027640
544.000000, 0.027031
543.000000, 0.026933
542.000000, 0.027009
541.000000, 0.027390
540.000000, 0.027994
539.000000, 0.028248
538.000000, 0.027190
537.000000, 0.029209
536.000000, 0.028398
535.000000, 0.029213
534.000000, 0.028722
533.000000, 0.028280
532.000000, 0.028805
531.000000, 0.028969
530.000000, 0.028994
529.000000, 0.029085
528.000000, 0.028842
527.000000, 0.029154
526.000000, 0.029361
525.000000, 0.030297
524.000000, 0.030355
523.000000, 0.030633
522.000000, 0.031357
521.000000, 0.030562
520.000000, 0.031667
519.000000, 0.031310
518.000000, 0.031757
517.000000, 0.031847
516.000000, 0.032867
515.000000, 0.032871
514.000000, 0.032705
513.000000, 0.033095
512.000000, 0.033111
511.000000, 0.033411
510.000000, 0.032861
509.000000, 0.032822
508.000000, 0.032409
507.000000, 0.032385
506.000000, 0.033079
505.000000, 0.032937
504.000000, 0.032236
503.000000, 0.032161
502.000000, 0.031596
501.000000, 0.031666
500.000000, 0.031967
499.000000, 0.031741
498.000000, 0.031320
497.000000, 0.031055
496.000000, 0.031470
495.000000, 0.030758
494.000000, 0.030457
493.000000, 0.030443
492.000000, 0.031034
491.000000, 0.030583
490.000000, 0.029719
489.000000, 0.030074
488.000000, 0.029899
487.000000, 0.029667
486.000000, 0.029162
485.000000, 0.028518
484.000000, 0.028598
483.000000, 0.028240
482.000000, 0.028843
481.000000, 0.029255
480.000000, 0.029762
479.000000, 0.030333
478.000000, 0.030082
477.000000, 0.030235
476.000000, 0.031213
475.000000, 0.031464
474.000000, 0.031786
473.000000, 0.032398
472.000000, 0.032069
471.000000, 0.032614
470.000000, 0.032893
469.000000, 0.033283
468.000000, 0.033473
467.000000, 0.032895
466.000000, 0.033437
465.000000, 0.034439
464.000000, 0.034259
463.000000, 0.034276
462.000000, 0.033662
461.000000, 0.033997
460.000000, 0.034229
459.000000, 0.034255
458.000000, 0.034064
457.000000, 0.033766
456.000000, 0.033442
455.000000, 0.033532
454.000000, 0.033434
453.000000, 0.033475
452.000000, 0.033052
451.000000, 0.033226
450.000000, 0.033748
449.000000, 0.033924
448.000000, 0.033151
447.000000, 0.032789
446.000000, 0.032898
445.000000, 0.032473
444.000000, 0.032437
443.000000, 0.033501
442.000000, 0.033711
441.000000, 0.033446
440.000000, 0.033433
439.000000, 0.033570
438.000000, 0.033534
437.000000, 0.034229
436.000000, 0.035014
435.000000, 0.034657
434.000000, 0.034311
433.000000, 0.034705
432.000000, 0.034511
431.000000, 0.034019
430.000000, 0.033371
429.000000, 0.033625
428.000000, 0.034432
427.000000, 0.034930
426.000000, 0.034728
425.000000, 0.034306
424.000000, 0.034430
423.000000, 0.035375
422.000000, 0.036394
421.000000, 0.036279
420.000000, 0.035872
419.000000, 0.036201
418.000000, 0.035838
417.000000, 0.035012
416.000000, 0.035595
415.000000, 0.036081
414.000000, 0.036670
413.000000, 0.036428
412.000000, 0.035968
411.000000, 0.036164
410.000000, 0.035924
409.000000, 0.036490
408.000000, 0.036948
407.000000, 0.037204
406.000000, 0.037098
405.000000, 0.036890
404.000000, 0.037341
403.000000, 0.037146
402.000000, 0.036702
401.000000, 0.037130
400.000000, 0.036901
399.000000, 0.037212
398.000000, 0.037473
397.000000, 0.037772
396.000000, 0.037845
395.000000, 0.038143
394.000000, 0.038349
393.000000, 0.037972
392.000000, 0.037952
391.000000, 0.038387
390.000000, 0.037837
389.000000, 0.037854
388.000000, 0.038793
387.000000, 0.038848
386.000000, 0.039158
385.000000, 0.038867
384.000000, 0.039376
383.000000, 0.039454
382.000000, 0.039199
381.000000, 0.039359
380.000000, 0.039923
379.000000, 0.039317
378.000000, 0.039342
377.000000, 0.039150
376.000000, 0.038691
375.000000, 0.039249
374.000000, 0.039357
373.000000, 0.038964
372.000000, 0.039734
371.000000, 0.040402
370.000000, 0.040841
369.000000, 0.040659
368.000000, 0.040117
367.000000, 0.041180
366.000000, 0.040977
365.000000, 0.040844
364.000000, 0.040922
363.000000, 0.041701
362.000000, 0.041266
361.000000, 0.041408
360.000000, 0.041598
359.000000, 0.041335
358.000000, 0.041740
357.000000, 0.041217
356.000000, 0.042043
355.000000, 0.042178
354.000000, 0.042500
353.000000, 0.041964
352.000000, 0.041749
351.000000, 0.042061
350.000000, 0.042710
349.000000, 0.042915
348.000000, 0.042884
347.000000, 0.043117
346.000000, 0.043726
345.000000, 0.042692
344.000000, 0.043298
343.000000, 0.043716
342.000000, 0.043369
341.000000, 0.043963
340.000000, 0.044639
339.000000, 0.044433
338.000000, 0.044041
337.000000, 0.043803
336.000000, 0.043953
335.000000, 0.044464
334.000000, 0.045399
333.000000, 0.044550
332.000000, 0.044503
331.000000, 0.044364
330.000000, 0.044312
329.000000, 0.044633
328.000000, 0.044846
327.000000, 0.045293
326.000000, 0.044807
325.000000, 0.046136
324.000000, 0.045523
323.000000, 0.044994
322.000000, 0.045621
321.000000, 0.045606
320.000000, 0.045871
319.000000, 0.044978
318.000000, 0.054133
317.000000, 0.055630
316.000000, 0.055714
315.000000, 0.055554
314.000000, 0.056574
313.000000, 0.057026
312.000000, 0.058103
311.000000, 0.058124
310.000000, 0.057816
309.000000, 0.058316
308.000000, 0.059135
307.000000, 0.058586
306.000000, 0.058823
305.000000, 0.058630
304.000000, 0.059543
303.000000, 0.059106
302.000000, 0.059019
301.000000, 0.060468
300.000000, 0.060063
