nm, A
800.000000, -0.000380
799.000000, 0.001188
798.000000, 0.001408
797.000000, 0.000680
796.000000, 0.001152
795.000000, 0.001369
794.000000, 0.000792
793.000000, -0.000606
792.000000, 0.000727
791.000000, 0.001515
790.000000, 0.000308
789.000000, 0.000731
788.000000, 0.001815
787.000000, 0.001457
786.000000, 0.001169
785.000000, 0.000510
784.000000, 0.001273
783.000000, 0.001759
782.000000, 0.000677
781.000000, 0.000109
780.000000, 0.000478
779.000000, 0.001907
778.000000, 0.000948
777.000000, 0.001309
776.000000, 0.000454
775.000000, 0.001778
774.000000, 0.000975
773.000000, 0.001416
772.000000, 0.000351
771.000000, 0.000207
770.000000, 0.000895
769.000000, 0.001330
768.000000, 0.001595
767.000000, 0.001106
766.000000, -0.000076
765.000000, 0.000206
764.000000, 0.000980
763.000000, 0.001583
762.000000, 0.001290
761.000000, 0.001146
760.000000, 0.000002
759.000000, 0.000675
758.000000, 0.000660
757.000000, 0.000692
756.000000, 0.001863
755.000000, 0.001224
754.000000, 0.000097
753.000000, 0.000931
752.000000, 0.001323
751.000000, 0.001802
750.000000, 0.000533
749.000000, 0.001013
748.000000, 0.000558
747.000000, 0.000701
746.000000, -0.000356
745.000000, 0.001502
744.000000, 0.001580
743.000000, 0.001685
742.000000, 0.001799
741.000000, 0.001454
740.000000, 0.000892
739.000000, 0.000729
738.000000, 0.001901
737.000000, 0.001568
736.000000, 0.000693
735.000000, 0.001190
734.000000, 0.001303
733.000000, 0.001350
732.000000, 0.000925
731.000000, 0.001120
730.000000, 0.001762
729.000000, 0.001549
728.000000, 0.000893
727.000000, 0.001367
726.000000, 0.001875
725.000000, -0.000156
724.000000, 0.000840
723.000000, 0.000596
722.000000, 0.001809
721.000000, 0.001109
720.000000, 0.001262
719.000000, 0.000718
718.000000, 0.000714
717.000000, 0.000841
716.000000, 0.000754
715.000000, 0.000329
714.000000, 0.001558
713.000000, 0.001527
712.000000, 0.001796
711.000000, 0.001894
710.000000, 0.001417
709.000000, 0.001120
708.000000, 0.000576
707.000000, 0.000772
706.000000, 0.001739
705.000000, 0.001541
704.000000, 0.001322
703.000000, 0.001039
702.000000, 0.002318
701.000000, 0.002364
700.000000, 0.001177
699.000000, 0.001778
698.000000, 0.002123
697.000000, 0.001288
696.000000, 0.000710
695.000000, 0.001238
694.000000, 0.001333
693.000000, 0.000360
692.000000, 0.000319
691.000000, 0.001448
690.000000, 0.001621
689.000000, 0.001008
688.000000, 0.000432
687.000000, 0.001099
686.000000, 0.001387
685.000000, 0.000920
684.000000, 0.001561
683.000000, 0.001979
682.000000, 0.001858
681.000000, 0.001397
680.000000, 0.001865
679.000000, 0.002699
678.000000, 0.002526
677.000000, 0.002581
676.000000, 0.002530
675.000000, 0.001925
674.000000, 0.001896
673.000000, 0.000696
672.000000, 0.000455
671.000000, 0.001658
670.000000, 0.001918
669.000000, 0.002338
668.000000, 0.002109
667.000000, 0.002024
666.000000, 0.002436
665.000000, 0.001852
664.000000, 0.001669
663.000000, 0.002393
662.000000, 0.002379
661.000000, 0.000678
660.000000, 0.000682
659.000000, 0.002476
658.000000, 0.002124
657.000000, 0.001262
656.000000, 0.002187
655.000000, 0.002731
654.000000, 0.002406
653.000000, 0.001951
652.000000, 0.000952
651.000000, 0.001518
650.000000, 0.002396
649.000000, 0.002802
648.000000, 0.002113
647.000000, 0.001292
646.000000, 0.001559
645.000000, 0.002697
644.000000, 0.003260
643.000000, 0.002823
642.000000, 0.002425
641.000000, 0.002256
640.000000, 0.003355
639.000000, 0.002286
638.000000, 0.001649
637.000000, 0.001764
636.000000, 0.001658
635.000000, 0.001645
634.000000, 0.002166
633.000000, 0.002411
632.000000, 0.001947
631.000000, 0.002004
630.000000, 0.002027
629.000000, 0.001453
628.000000, 0.002147
627.000000, 0.003176
626.000000, 0.003077
625.000000, 0.002366
624.000000, 0.001904
623.000000, 0.002542
622.000000, 0.003670
621.000000, 0.002897
620.000000, 0.002498
619.000000, 0.001717
618.000000, 0.001719
617.000000, 0.002883
616.000000, 0.002953
615.000000, 0.002072
614.000000, 0.001770
613.000000, 0.001926
612.000000, 0.002095
611.000000, 0.003086
610.000000, 0.002725
609.000000, 0.001999
608.000000, 0.002538
607.000000, 0.002553
606.000000, 0.002973
605.000000, 0.002867
604.000000, 0.002785
603.000000, 0.002601
602.000000, 0.003802
601.000000, 0.003694
600.000000, 0.002352
599.000000, 0.000940
598.000000, 0.003837
597.000000, 0.003300
596.000000, 0.001962
595.000000, 0.002644
594.000000, 0.002185
593.000000, 0.002812
592.000000, 0.003418
591.000000, 0.002917
590.000000, 0.003069
589.000000, 0.002179
588.000000, 0.001976
587.000000, 0.002732
586.000000, 0.003735
585.000000, 0.002804
584.000000, 0.002071
583.000000, 0.002678
582.000000, 0.003178
581.000000, 0.002579
580.000000, 0.001959
579.000000, 0.003453
578.000000, 0.002417
577.000000, 0.002869
576.000000, 0.002595
575.000000, 0.003050
574.000000, 0.003416
573.000000, 0.003525
572.000000, 0.003551
571.000000, 0.003855
570.000000, 0.004009
569.000000, 0.004836
568.000000, 0.003448
567.000000, 0.003186
566.000000, 0.003596
565.000000, 0.003495
564.000000, 0.003282
563.000000, 0.004052
562.000000, 0.003579
561.000000, 0.004145
560.000000, 0.002182
559.000000, 0.004275
558.000000, 0.003949
557.000000, 0.003503
556.000000, 0.004391
555.000000, 0.004067
554.000000, 0.004025
553.000000, 0.003887
552.000000, 0.003283
551.000000, 0.005594
550.000000, 0.003046
549.000000, 0.004153
548.000000, 0.003678
547.000000, 0.004205
546.000000, 0.004145
545.000000, 0.003164
544.000000, 0.004543
543.000000, 0.005172
542.000000, 0.005642
541.000000, 0.005720
540.000000, 0.004221
539.000000, 0.004262
538.000000, 0.004950
537.000000, 0.003855
536.000000, 0.003804
535.000000, 0.003268
534.000000, 0.003901
533.000000, 0.005183
532.000000, 0.004872
531.000000, 0.004248
530.000000, 0.005152
529.000000, 0.005253
528.000000, 0.005265
527.000000, 0.005685
526.000000, 0.005851
525.000000, 0.005127
524.000000, 0.005859
523.000000, 0.006039
522.000000, 0.006104
521.000000, 0.007783
520.000000, 0.009437
519.000000, 0.013323
518.000000, 0.016837
517.000000, 0.021717
516.000000, 0.029229
515.000000, 0.036224
514.000000, 0.042209
513.000000, 0.044446
512.000000, 0.044271
511.000000, 0.041542
510.000000, 0.038526
509.000000, 0.034529
508.000000, 0.032515
507.000000, 0.030785
506.000000, 0.027742
505.000000, 0.026086
504.000000, 0.025194
503.000000, 0.024116
502.000000, 0.022819
501.000000, 0.022246
500.000000, 0.021086
499.000000, 0.020671
498.000000, 0.020784
497.000000, 0.021961
496.000000, 0.020486
495.000000, 0.022456
494.000000, 0.022925
493.000000, 0.023301
492.000000, 0.022659
491.000000, 0.023919
490.000000, 0.026066
489.000000, 0.026757
488.000000, 0.028353
487.000000, 0.030076
486.000000, 0.032703
485.000000, 0.033797
484.000000, 0.034847
483.000000, 0.035999
482.000000, 0.036272
481.000000, 0.036021
480.000000, 0.034972
479.000000, 0.034796
478.000000, 0.034740
477.000000, 0.033584
476.000000, 0.032306
475.000000, 0.031620
474.000000, 0.030370
473.000000, 0.027765
472.000000, 0.027990
471.000000, 0.027387
470.000000, 0.027240
469.000000, 0.025769
468.000000, 0.025302
467.000000, 0.025549
466.000000, 0.023755
465.000000, 0.023100
464.000000, 0.023413
463.000000, 0.022994
462.000000, 0.023355
461.000000, 0.022637
460.000000, 0.022949
459.000000, 0.022447
458.000000, 0.021806
457.000000, 0.022233
456.000000, 0.022100
455.000000, 0.021500
454.000000, 0.022267
453.000000, 0.022308
452.000000, 0.022669
451.000000, 0.022483
450.000000, 0.022093
449.000000, 0.022086
448.000000, 0.022385
447.000000, 0.022906
446.000000, 0.022513
445.000000, 0.022365
444.000000, 0.023059
443.000000, 0.022330
442.000000, 0.022419
441.000000, 0.023797
440.000000, 0.024293
439.000000, 0.024689
438.000000, 0.025780
437.000000, 0.025576
436.000000, 0.025025
435.000000, 0.025980
434.000000, 0.027841
433.000000, 0.028062
432.000000, 0.028471
431.000000, 0.029177
430.000000, 0.030097
429.000000, 0.031292
428.000000, 0.031261
427.000000, 0.030854
426.000000, 0.031094
425.000000, 0.031169
424.000000, 0.031147
423.000000, 0.030858
422.000000, 0.029830
421.000000, 0.029798
420.000000, 0.030826
419.000000, 0.030258
418.000000, 0.030162
417.000000, 0.030899
416.000000, 0.030252
415.000000, 0.030161
414.000000, 0.030118
413.000000, 0.030337
412.000000, 0.031213
411.000000, 0.031315
410.000000, 0.031307
409.000000, 0.031030
408.000000, 0.030643
407.000000, 0.029708
406.000000, 0.029923
405.000000, 0.030402
404.000000, 0.030258
403.000000, 0.030619
402.000000, 0.030873
401.000000, 0.030553
400.000000, 0.030911
399.000000, 0.030834
398.000000, 0.030795
397.000000, 0.030513
396.000000, 0.029961
395.000000, 0.029586
394.000000, 0.030399
393.000000, 0.031522
392.000000, 0.031480
391.000000, 0.030608
390.000000, 0.030988
389.000000, 0.031698
388.000000, 0.030183
387.000000, 0.030537
386.000000, 0.030311
385.000000, 0.031341
384.000000, 0.031289
383.000000, 0.030842
382.000000, 0.030786
381.000000, 0.031395
380.000000, 0.031247
379.000000, 0.032344
378.000000, 0.031808
377.000000, 0.031484
376.000000, 0.031799
375.000000, 0.031920
374.000000, 0.031941
373.000000, 0.032525
372.000000, 0.032835
371.000000, 0.031669
370.000000, 0.031326
369.000000, 0.032537
368.000000, 0.033123
367.000000, 0.032080
366.000000, 0.033570
365.000000, 0.034537
364.000000, 0.034061
363.000000, 0.033308
362.000000, 0.034106
361.000000, 0.033937
360.000000, 0.034221
359.000000, 0.035206
358.000000, 0.034897
357.000000, 0.035474
356.000000, 0.035352
355.000000, 0.036053
354.000000, 0.035812
353.000000, 0.036247
352.000000, 0.038041
351.000000, 0.038356
350.000000, 0.038223
349.000000, 0.038450
348.000000, 0.039119
347.000000, 0.040405
346.000000, 0.039664
345.000000, 0.042169
344.000000, 0.041894
343.000000, 0.041630
342.000000, 0.043422
341.000000, 0.043645
340.000000, 0.043837
339.000000, 0.044485
338.000000, 0.045843
337.000000, 0.046635
336.000000, 0.047789
335.000000, 0.048732
334.000000, 0.048883
333.000000, 0.050343
332.000000, 0.052017
331.000000, 0.051876
330.000000, 0.054093
329.000000, 0.056065
328.000000, 0.057662
327.000000, 0.058792
326.000000, 0.062145
325.000000, 0.062552
324.000000, 0.065256
323.000000, 0.067653
322.000000, 0.069098
321.000000, 0.071176
320.000000, 0.072367
319.000000, 0.074600
318.000000, 0.075988
317.000000, 0.075110
316.000000, 0.077943
315.000000, 0.078858
314.000000, 0.077926
313.000000, 0.079909
312.000000, 0.079306
311.000000, 0.080703
310.000000, 0.083072
309.000000, 0.083585
308.000000, 0.083827
307.000000, 0.086052
306.000000, 0.087009
305.000000, 0.088998
304.000000, 0.088816
303.000000, 0.092013
302.000000, 0.092721
301.000000, 0.092319
300.000000, 0.093783
