nm, A
800.000000, 0.034533
799.000000, 0.035274
798.000000, 0.035724
797.000000, 0.035569
796.000000, 0.035569
795.000000, 0.036078
794.000000, 0.034873
793.000000, 0.034548
792.000000, 0.034756
791.000000, 0.035355
790.000000, 0.035647
789.000000, 0.035507
788.000000, 0.035989
787.000000, 0.034436
786.000000, 0.034920
785.000000, 0.035305
784.000000, 0.035195
783.000000, 0.036139
782.000000, 0.035917
781.000000, 0.035838
780.000000, 0.035631
779.000000, 0.035958
778.000000, 0.035839
777.000000, 0.035928
776.000000, 0.035903
775.000000, 0.035409
774.000000, 0.036785
773.000000, 0.036223
772.000000, 0.036922
771.000000, 0.036699
770.000000, 0.037600
769.000000, 0.037243
768.000000, 0.038145
767.000000, 0.038008
766.000000, 0.038037
765.000000, 0.039058
764.000000, 0.039780
763.000000, 0.040072
762.000000, 0.039939
761.000000, 0.040770
760.000000, 0.040149
759.000000, 0.040748
758.000000, 0.040833
757.000000, 0.040908
756.000000, 0.040784
755.000000, 0.041310
754.000000, 0.040369
753.000000, 0.040612
752.000000, 0.040557
751.000000, 0.040917
750.000000, 0.041808
749.000000, 0.042512
748.000000, 0.042885
747.000000, 0.043016
746.000000, 0.042133
745.000000, 0.042462
744.000000, 0.042911
743.000000, 0.042472
742.000000, 0.041512
741.000000, 0.041145
740.000000, 0.040229
739.000000, 0.040172
738.000000, 0.040432
737.000000, 0.040417
736.000000, 0.040009
735.000000, 0.040248
734.000000, 0.040006
733.000000, 0.039706
732.000000, 0.039425
731.000000, 0.039523
730.000000, 0.039698
729.000000, 0.039810
728.000000, 0.039483
727.000000, 0.039121
726.000000, 0.038949
725.000000, 0.039385
724.000000, 0.039305
723.000000, 0.039088
722.000000, 0.039951
721.000000, 0.040384
720.000000, 0.040430
719.000000, 0.040651
718.000000, 0.039862
717.000000, 0.039625
716.000000, 0.039663
715.000000, 0.040046
714.000000, 0.039583
713.000000, 0.039208
712.000000, 0.039223
711.000000, 0.039288
710.000000, 0.039090
709.000000, 0.039249
708.000000, 0.039715
707.000000, 0.040216
706.000000, 0.039351
705.000000, 0.039175
704.000000, 0.039308
703.000000, 0.039454
702.000000, 0.039970
701.000000, 0.040064
700.000000, 0.039385
699.000000, 0.039692
698.000000, 0.040181
697.000000, 0.039095
696.000000, 0.039051
695.000000, 0.039905
694.000000, 0.039553
693.000000, 0.039328
692.000000, 0.039592
691.000000, 0.039146
690.000000, 0.039476
689.000000, 0.039980
688.000000, 0.039419
687.000000, 0.039530
686.000000, 0.040230
685.000000, 0.040507
684.000000, 0.039641
683.000000, 0.039177
682.000000, 0.039935
681.000000, 0.039277
680.000000, 0.038706
679.000000, 0.039500
678.000000, 0.039416
677.000000, 0.039233
676.000000, 0.039124
675.000000, 0.039872
674.000000, 0.039584
673.000000, 0.039192
672.000000, 0.039488
671.000000, 0.039153
670.000000, 0.038665
669.000000, 0.039181
668.000000, 0.039124
667.000000, 0.038913
666.000000, 0.039500
665.000000, 0.038839
664.000000, 0.038141
663.000000, 0.038858
662.000000, 0.039215
661.000000, 0.038887
660.000000, 0.038724
659.000000, 0.038838
658.000000, 0.038690
657.000000, 0.038669
656.000000, 0.038638
655.000000, 0.038256
654.000000, 0.038990
653.000000, 0.038862
652.000000, 0.039065
651.000000, 0.039248
650.000000, 0.038736
649.000000, 0.037824
648.000000, 0.037714
647.000000, 0.037743
646.000000, 0.037720
645.000000, 0.037716
644.000000, 0.037246
643.000000, 0.037225
642.000000, 0.037356
641.000000, 0.037366
640.000000, 0.037805
639.000000, 0.037314
638.000000, 0.036935
637.000000, 0.036994
636.000000, 0.037195
635.000000, 0.037556
634.000000, 0.036985
633.000000, 0.036742
632.000000, 0.037552
631.000000, 0.037436
630.000000, 0.035895
629.000000, 0.035495
628.000000, 0.035686
627.000000, 0.036122
626.000000, 0.036194
625.000000, 0.035211
624.000000, 0.035426
623.000000, 0.036338
622.000000, 0.036152
621.000000, 0.035498
620.000000, 0.034497
619.000000, 0.034428
618.000000, 0.034422
617.000000, 0.034501
616.000000, 0.034667
615.000000, 0.034896
614.000000, 0.034584
613.000000, 0.034931
612.000000, 0.034257
611.000000, 0.033826
610.000000, 0.033939
609.000000, 0.034156
608.000000, 0.034251
607.000000, 0.034227
606.000000, 0.034073
605.000000, 0.033229
604.000000, 0.033471
603.000000, 0.033515
602.000000, 0.033448
601.000000, 0.033419
600.000000, 0.033584
599.000000, 0.033101
598.000000, 0.033100
597.000000, 0.033629
596.000000, 0.033347
595.000000, 0.032966
594.000000, 0.032879
593.000000, 0.033385
592.000000, 0.032560
591.000000, 0.033145
590.000000, 0.032356
589.000000, 0.032385
588.000000, 0.032248
587.000000, 0.032517
586.000000, 0.032546
585.000000, 0.031904
584.000000, 0.031898
583.000000, 0.031618
582.000000, 0.032130
581.000000, 0.032329
580.000000, 0.032695
579.000000, 0.031361
578.000000, 0.031950
577.000000, 0.031453
576.000000, 0.032179
575.000000, 0.031586
574.000000, 0.031535
573.000000, 0.032471
572.000000, 0.031604
571.000000, 0.031380
570.000000, 0.031271
569.000000, 0.031105
568.000000, 0.031630
567.000000, 0.031440
566.000000, 0.031171
565.000000, 0.032006
564.000000, 0.030984
563.000000, 0.030346
562.000000, 0.030561
561.000000, 0.030575
560.000000, 0.030350
559.000000, 0.031081
558.000000, 0.030256
557.000000, 0.030989
556.000000, 0.030900
555.000000, 0.029953
554.000000, 0.029939
553.000000, 0.030507
552.000000, 0.030674
551.000000, 0.030449
550.000000, 0.030099
549.000000, 0.030524
548.000000, 0.031214
547.000000, 0.030038
546.000000, 0.029670
545.000000, 0.030046
544.000000, 0.031020
543.000000, 0.029964
542.000000, 0.030823
541.000000, 0.030245
540.000000, 0.030520
539.000000, 0.030282
538.000000, 0.030846
537.000000, 0.030164
536.000000, 0.031166
535.000000, 0.031456
534.000000, 0.030039
533.000000, 0.031123
532.000000, 0.031616
531.000000, 0.031321
530.000000, 0.030790
529.000000, 0.031247
528.000000, 0.031948
527.000000, 0.031785
526.000000, 0.032516
525.000000, 0.032530
524.000000, 0.032392
523.000000, 0.032835
522.000000, 0.032793
521.000000, 0.033987
520.000000, 0.033657
519.000000, 0.033503
518.000000, 0.033874
517.000000, 0.034157
516.000000, 0.034944
515.000000, 0.035446
514.000000, 0.035778
513.000000, 0.036366
512.000000, 0.037100
511.000000, 0.036555
510.000000, 0.036084
509.000000, 0.035969
508.000000, 0.035684
507.000000, 0.035278
506.000000, 0.035200
505.000000, 0.035193
504.000000, 0.035029
503.000000, 0.035152
502.000000, 0.034614
501.000000, 0.034294
500.000000, 0.034197
499.000000, 0.034425
498.000000, 0.034590
497.000000, 0.034262
496.000000, 0.033732
495.000000, 0.033882
494.000000, 0.034010
493.000000, 0.032673
492.000000, 0.032997
491.000000, 0.032938
490.000000, 0.032957
489.000000, 0.032531
488.000000, 0.033041
487.000000, 0.033029
486.000000, 0.032263
485.000000, 0.031592
484.000000, 0.030607
483.000000, 0.030898
482.000000, 0.031269
481.000000, 0.031775
480.000000, 0.032169
479.000000, 0.032782
478.000000, 0.033686
477.000000, 0.033556
476.000000, 0.034052
475.000000, 0.034146
474.000000, 0.033825
473.000000, 0.034800
472.000000, 0.035075
471.000000, 0.035364
470.000000, 0.035725
469.000000, 0.035957
468.000000, 0.035770
467.000000, 0.036395
466.000000, 0.036726
465.000000, 0.036762
464.000000, 0.037018
463.000000, 0.037077
462.000000, 0.037224
461.000000, 0.037742
460.000000, 0.037202
459.000000, 0.037277
458.000000, 0.036551
457.000000, 0.036450
456.000000, 0.036452
455.000000, 0.035925
454.000000, 0.036631
453.000000, 0.036980
452.000000, 0.036739
451.000000, 0.036444
450.000000, 0.036704
449.000000, 0.036990
448.000000, 0.036757
447.000000, 0.036105
446.000000, 0.036470
445.000000, 0.036602
444.000000, 0.035782
443.000000, 0.035651
442.000000, 0.035933
441.000000, 0.036294
440.000000, 0.037166
439.000000, 0.037541
438.000000, 0.036889
437.000000, 0.036158
436.000000, 0.036611
435.000000, 0.036544
434.000000, 0.037043
433.000000, 0.037489
432.000000, 0.037616
431.000000, 0.038333
430.000000, 0.038181
429.000000, 0.037925
428.000000, 0.038147
427.000000, 0.038628
426.000000, 0.038035
425.000000, 0.037860
424.000000, 0.038713
423.000000, 0.038459
422.000000, 0.038652
421.000000, 0.038613
420.000000, 0.038379
419.000000, 0.039002
418.000000, 0.039703
417.000000, 0.040028
416.000000, 0.039466
415.000000, 0.039358
414.000000, 0.039111
413.000000, 0.038932
412.000000, 0.039287
411.000000, 0.039242
410.000000, 0.039953
409.000000, 0.039722
408.000000, 0.039503
407.000000, 0.039429
406.000000, 0.039911
405.000000, 0.039930
404.000000, 0.039938
403.000000, 0.040579
402.000000, 0.040105
401.000000, 0.039868
400.000000, 0.040302
399.000000, 0.040752
398.000000, 0.040861
397.000000, 0.041182
396.000000, 0.041887
395.000000, 0.042137
394.000000, 0.041884
393.000000, 0.041655
392.000000, 0.042180
391.000000, 0.041684
390.000000, 0.041552
389.000000, 0.042085
388.000000, 0.042082
387.000000, 0.042196
386.000000, 0.042766
385.000000, 0.043321
384.000000, 0.042714
383.000000, 0.043035
382.000000, 0.043620
381.000000, 0.043494
380.000000, 0.043522
379.000000, 0.042787
378.000000, 0.043676
377.000000, 0.043265
376.000000, 0.043031
375.000000, 0.042879
374.000000, 0.043927
373.000000, 0.044651
372.000000, 0.045303
371.000000, 0.045222
370.000000, 0.044240
369.000000, 0.045085
368.000000, 0.044866
367.000000, 0.045716
366.000000, 0.045655
365.000000, 0.045072
364.000000, 0.045589
363.000000, 0.045323
362.000000, 0.045948
361.000000, 0.046311
360.000000, 0.046907
359.000000, 0.046638
358.000000, 0.046376
357.000000, 0.046862
356.000000, 0.046309
355.000000, 0.047825
354.000000, 0.047437
353.000000, 0.047058
352.000000, 0.048020
351.000000, 0.047665
350.000000, 0.048196
349.000000, 0.048113
348.000000, 0.048620
347.000000, 0.048252
346.000000, 0.047982
345.000000, 0.048577
344.000000, 0.048602
343.000000, 0.048835
342.000000, 0.049793
341.000000, 0.049729
340.000000, 0.049853
339.000000, 0.049162
338.000000, 0.050129
337.000000, 0.050251
336.000000, 0.050465
335.000000, 0.050851
334.000000, 0.051409
333.000000, 0.050402
332.000000, 0.050720
331.000000, 0.050770
330.000000, 0.051061
329.000000, 0.050951
328.000000, 0.051487
327.000000, 0.052539
326.000000, 0.052117
325.000000, 0.052056
324.000000, 0.052152
323.000000, 0.052225
322.000000, 0.052559
321.000000, 0.052946
320.000000, 0.052565
319.000000, 0.053055
318.000000, 0.062371
317.000000, 0.063349
316.000000, 0.063452
315.000000, 0.063551
314.000000, 0.064612
313.000000, 0.064087
312.000000, 0.064151
311.000000, 0.065624
310.000000, 0.065784
309.000000, 0.066168
308.000000, 0.066296
307.000000, 0.066779
306.000000, 0.067675
305.000000, 0.067827
304.000000, 0.067364
303.000000, 0.069274
302.000000, 0.069028
301.000000, 0.069259
300.000000, 0.070142
