nm, A
800.000000, 0.005336
799.000000, 0.003641
798.000000, 0.003771
797.000000, 0.004037
796.000000, 0.003615
795.000000, 0.002387
794.000000, 0.004343
793.000000, 0.004531
792.000000, 0.003651
791.000000, 0.003089
790.000000, 0.001680
789.000000, 0.002922
788.000000, 0.003000
787.000000, 0.005451
786.000000, 0.004263
785.000000, 0.003185
784.000000, 0.003646
783.000000, 0.003265
782.000000, 0.003269
781.000000, 0.003797
780.000000, 0.003969
779.000000, 0.003211
778.000000, 0.004600
777.000000, 0.003583
776.000000, 0.004435
775.000000, 0.005236
774.000000, 0.003770
773.000000, 0.004915
772.000000, 0.003403
771.000000, 0.004307
770.000000, 0.003816
769.000000, 0.004498
768.000000, 0.003602
767.000000, 0.004261
766.000000, 0.004891
765.000000, 0.004704
764.000000, 0.003727
763.000000, 0.003646
762.000000, 0.003670
761.000000, 0.003751
760.000000, 0.003896
759.000000, 0.003424
758.000000, 0.003110
757.000000, 0.002783
756.000000, 0.003438
755.000000, 0.003272
754.000000, 0.004874
753.000000, 0.003820
752.000000, 0.004287
751.000000, 0.004694
750.000000, 0.004300
749.000000, 0.003483
748.000000, 0.004034
747.000000, 0.002705
746.000000, 0.004352
745.000000, 0.003382
744.000000, 0.003109
743.000000, 0.002846
742.000000, 0.003369
741.000000, 0.003835
740.000000, 0.004268
739.000000, 0.004107
738.000000, 0.003687
737.000000, 0.003609
736.000000, 0.003038
735.000000, 0.002993
734.000000, 0.003129
733.000000, 0.003333
732.000000, 0.004107
731.000000, 0.003979
730.000000, 0.003216
729.000000, 0.003205
728.000000, 0.003402
727.000000, 0.003746
726.000000, 0.003455
725.000000, 0.002769
724.000000, 0.004103
723.000000, 0.004719
722.000000, 0.003222
721.000000, 0.002863
720.000000, 0.002293
719.000000, 0.001635
718.000000, 0.002994
717.000000, 0.003610
716.000000, 0.002945
715.000000, 0.002861
714.000000, 0.004161
713.000000, 0.004472
712.000000, 0.004169
711.000000, 0.004288
710.000000, 0.004148
709.000000, 0.003836
708.000000, 0.003895
707.000000, 0.003641
706.000000, 0.003899
705.000000, 0.003892
704.000000, 0.003705
703.000000, 0.003941
702.000000, 0.003629
701.000000, 0.004207
700.000000, 0.004874
699.000000, 0.003734
698.000000, 0.002899
697.000000, 0.003803
696.000000, 0.004126
695.000000, 0.003981
694.000000, 0.004589
693.000000, 0.004249
692.000000, 0.003882
691.000000, 0.004572
690.000000, 0.003521
689.000000, 0.003340
688.000000, 0.004236
687.000000, 0.003287
686.000000, 0.002642
685.000000, 0.002763
684.000000, 0.003426
683.000000, 0.003712
682.000000, 0.003633
681.000000, 0.004129
680.000000, 0.004185
679.000000, 0.003417
678.000000, 0.003538
677.000000, 0.003951
676.000000, 0.004502
675.000000, 0.003969
674.000000, 0.004256
673.000000, 0.004327
672.000000, 0.003327
671.000000, 0.003095
670.000000, 0.003834
669.000000, 0.003520
668.000000, 0.003588
667.000000, 0.003677
666.000000, 0.002628
665.000000, 0.003383
664.000000, 0.004389
663.000000, 0.003594
662.000000, 0.003487
661.000000, 0.004199
660.000000, 0.003584
659.000000, 0.003291
658.000000, 0.003906
657.000000, 0.004041
656.000000, 0.003573
655.000000, 0.003602
654.000000, 0.003080
653.000000, 0.003055
652.000000, 0.003950
651.000000, 0.003723
650.000000, 0.002564
649.000000, 0.004192
648.000000, 0.004515
647.000000, 0.004076
646.000000, 0.004166
645.000000, 0.004126
644.000000, 0.004875
643.000000, 0.004491
642.000000, 0.004077
641.000000, 0.004037
640.000000, 0.003585
639.000000, 0.004755
638.000000, 0.004741
637.000000, 0.004636
636.000000, 0.004151
635.000000, 0.003947
634.000000, 0.004273
633.000000, 0.004429
632.000000, 0.003269
631.000000, 0.003402
630.000000, 0.004930
629.000000, 0.004841
628.000000, 0.004357
627.000000, 0.004171
626.000000, 0.004036
625.000000, 0.004309
624.000000, 0.004125
623.000000, 0.003231
622.000000, 0.003414
621.000000, 0.004539
620.000000, 0.005103
619.000000, 0.004887
618.000000, 0.004496
617.000000, 0.004068
616.000000, 0.003987
615.000000, 0.003392
614.000000, 0.003262
613.000000, 0.003587
612.000000, 0.003821
611.000000, 0.004543
610.000000, 0.004267
609.000000, 0.004352
608.000000, 0.004253
607.000000, 0.003068
606.000000, 0.003593
605.000000, 0.004992
604.000000, 0.003555
603.000000, 0.003369
602.000000, 0.004140
601.000000, 0.004084
600.000000, 0.003759
599.000000, 0.004112
598.000000, 0.004291
597.000000, 0.003496
596.000000, 0.003760
595.000000, 0.003807
594.000000, 0.003634
593.000000, 0.003114
592.000000, 0.004495
591.000000, 0.004067
590.000000, 0.005302
589.000000, 0.004426
588.000000, 0.004838
587.000000, 0.003959
586.000000, 0.003791
585.000000, 0.005078
584.000000, 0.004851
583.000000, 0.004685
582.000000, 0.004191
581.000000, 0.003440
580.000000, 0.003946
579.000000, 0.005277
578.000000, 0.005249
577.000000, 0.004982
576.000000, 0.003519
575.000000, 0.005042
574.000000, 0.004619
573.000000, 0.004229
572.000000, 0.005056
571.000000, 0.005051
570.000000, 0.005033
569.000000, 0.005580
568.000000, 0.005278
567.000000, 0.005269
566.000000, 0.005681
565.000000, 0.004309
564.000000, 0.005953
563.000000, 0.005712
562.000000, 0.006351
561.000000, 0.006603
560.000000, 0.007273
559.000000, 0.006644
558.000000, 0.006425
557.000000, 0.006104
556.000000, 0.005458
555.000000, 0.006905
554.000000, 0.006956
553.000000, 0.007040
552.000000, 0.007755
551.000000, 0.006869
550.000000, 0.008681
549.000000, 0.007245
548.000000, 0.008007
547.000000, 0.009546
546.000000, 0.010205
545.000000, 0.009938
544.000000, 0.009812
543.000000, 0.010633
542.000000, 0.010176
541.000000, 0.011559
540.000000, 0.012276
539.000000, 0.012653
538.000000, 0.012636
537.000000, 0.013207
536.000000, 0.013492
535.000000, 0.012389
534.000000, 0.014724
533.000000, 0.014975
532.000000, 0.014659
531.000000, 0.013766
530.000000, 0.015596
529.000000, 0.015090
528.000000, 0.015279
527.000000, 0.015342
526.000000, 0.015997
525.000000, 0.016202
524.000000, 0.016859
523.000000, 0.016929
522.000000, 0.017708
521.000000, 0.017011
520.000000, 0.018489
519.000000, 0.019921
518.000000, 0.022537
517.000000, 0.026061
516.000000, 0.030318
515.000000, 0.035247
514.000000, 0.041320
513.000000, 0.044362
512.000000, 0.045924
511.000000, 0.045270
510.000000, 0.043872
509.000000, 0.040911
508.000000, 0.038500
507.000000, 0.036954
506.000000, 0.035600
505.000000, 0.032826
504.000000, 0.031913
503.000000, 0.029821
502.000000, 0.028728
501.000000, 0.027833
500.000000, 0.027212
499.000000, 0.026888
498.000000, 0.025618
497.000000, 0.025440
496.000000, 0.025055
495.000000, 0.025208
494.000000, 0.025635
493.000000, 0.027304
492.000000, 0.027297
491.000000, 0.027686
490.000000, 0.028662
489.000000, 0.030080
488.000000, 0.031322
487.000000, 0.032513
486.000000, 0.034025
485.000000, 0.035380
484.000000, 0.038022
483.000000, 0.038956
482.000000, 0.039604
481.000000, 0.038760
480.000000, 0.039547
479.000000, 0.039211
478.000000, 0.037952
477.000000, 0.037888
476.000000, 0.037077
475.000000, 0.036489
474.000000, 0.036062
473.000000, 0.034496
472.000000, 0.034055
471.000000, 0.033406
470.000000, 0.033079
469.000000, 0.032333
468.000000, 0.032074
467.000000, 0.032331
466.000000, 0.031644
465.000000, 0.031108
464.000000, 0.030620
463.000000, 0.030875
462.000000, 0.030340
461.000000, 0.029674
460.000000, 0.030007
459.000000, 0.030055
458.000000, 0.031008
457.000000, 0.031056
456.000000, 0.031052
455.000000, 0.030590
454.000000, 0.030345
453.000000, 0.030303
452.000000, 0.030180
451.000000, 0.030284
450.000000, 0.030040
449.000000, 0.029403
448.000000, 0.030272
447.000000, 0.031812
446.000000, 0.031116
445.000000, 0.030932
444.000000, 0.032986
443.000000, 0.033142
442.000000, 0.033703
441.000000, 0.033959
440.000000, 0.033607
439.000000, 0.034038
438.000000, 0.035069
437.000000, 0.035834
436.000000, 0.036122
435.000000, 0.037950
434.000000, 0.037785
433.000000, 0.037803
432.000000, 0.038276
431.000000, 0.038109
430.000000, 0.039362
429.000000, 0.039719
428.000000, 0.040165
427.000000, 0.040431
426.000000, 0.041103
425.000000, 0.041194
424.000000, 0.040532
423.000000, 0.041208
422.000000, 0.041313
421.000000, 0.041589
420.000000, 0.041807
419.000000, 0.041416
418.000000, 0.040943
417.000000, 0.041163
416.000000, 0.041626
415.000000, 0.041587
414.000000, 0.041970
413.000000, 0.042251
412.000000, 0.042312
411.000000, 0.042362
410.000000, 0.041554
409.000000, 0.041573
408.000000, 0.042207
407.000000, 0.042714
406.000000, 0.042292
405.000000, 0.042714
404.000000, 0.042987
403.000000, 0.042226
402.000000, 0.042924
401.000000, 0.043428
400.000000, 0.043078
399.000000, 0.043283
398.000000, 0.042895
397.000000, 0.042545
396.000000, 0.041739
395.000000, 0.042030
394.000000, 0.043572
393.000000, 0.043654
392.000000, 0.042327
391.000000, 0.042972
390.000000, 0.043752
389.000000, 0.043738
388.000000, 0.043949
387.000000, 0.045192
386.000000, 0.045032
385.000000, 0.044460
384.000000, 0.044980
383.000000, 0.044469
382.000000, 0.044829
381.000000, 0.045642
380.000000, 0.045816
379.000000, 0.046890
378.000000, 0.046504
377.000000, 0.046127
376.000000, 0.046996
375.000000, 0.048040
374.000000, 0.047241
373.000000, 0.047230
372.000000, 0.046623
371.000000, 0.047612
370.000000, 0.048675
369.000000, 0.048820
368.000000, 0.048853
367.000000, 0.049151
366.000000, 0.050408
365.000000, 0.051347
364.000000, 0.050900
363.000000, 0.051533
362.000000, 0.051301
361.000000, 0.051651
360.000000, 0.051481
359.000000, 0.052563
358.000000, 0.053714
357.000000, 0.053075
356.000000, 0.054530
355.000000, 0.053001
354.000000, 0.054238
353.000000, 0.056246
352.000000, 0.055646
351.000000, 0.056144
350.000000, 0.056499
349.000000, 0.057455
348.000000, 0.057433
347.000000, 0.059360
346.000000, 0.060387
345.000000, 0.060477
344.000000, 0.061847
343.000000, 0.062216
342.000000, 0.061838
341.000000, 0.063345
340.000000, 0.064651
339.000000, 0.066618
338.000000, 0.066658
337.000000, 0.067503
336.000000, 0.069348
335.000000, 0.070661
334.000000, 0.070811
333.000000, 0.072999
332.000000, 0.074521
331.000000, 0.075687
330.000000, 0.078515
329.000000, 0.081397
328.000000, 0.081804
327.000000, 0.082813
326.000000, 0.086119
325.000000, 0.087888
324.000000, 0.089837
323.000000, 0.092897
322.000000, 0.095482
321.000000, 0.097492
320.000000, 0.099212
319.000000, 0.101783
318.000000, 0.100991
317.000000, 0.103625
316.000000, 0.105361
315.000000, 0.107094
314.000000, 0.107774
313.000000, 0.110231
312.000000, 0.111787
311.000000, 0.112173
310.000000, 0.114873
309.000000, 0.115799
308.000000, 0.117347
307.000000, 0.119182
306.000000, 0.120726
305.000000, 0.122184
304.000000, 0.124825
303.000000, 0.124710
302.000000, 0.127049
301.000000, 0.128294
300.000000, 0.129971
