nm, A
800.000000, -0.001042
799.000000, -0.001211
798.000000, -0.002138
797.000000, -0.001949
796.000000, -0.001523
795.000000, -0.001439
794.000000, -0.000422
793.000000, -0.000677
792.000000, 0.000266
791.000000, -0.001001
790.000000, -0.001275
789.000000, -0.000582
788.000000, -0.000784
787.000000, -0.001724
786.000000, -0.001672
785.000000, -0.002026
784.000000, -0.001916
783.000000, -0.000788
782.000000, -0.000986
781.000000, -0.002226
780.000000, -0.001703
779.000000, -0.001615
778.000000, -0.001101
777.000000, -0.000973
776.000000, -0.001470
775.000000, -0.001776
774.000000, 0.000140
773.000000, -0.000676
772.000000, 0.000474
771.000000, -0.001002
770.000000, -0.000864
769.000000, -0.000665
768.000000, -0.000191
767.000000, -0.000329
766.000000, 0.000111
765.000000, 0.000044
764.000000, -0.000481
763.000000, -0.000332
762.000000, -0.000401
761.000000, -0.001195
760.000000, -0.001638
759.000000, -0.001217
758.000000, -0.000342
757.000000, 0.000217
756.000000, -0.000605
755.000000, -0.000999
754.000000, -0.000486
753.000000, -0.001147
752.000000, -0.001164
751.000000, -0.000216
750.000000, -0.000438
749.000000, -0.001498
748.000000, -0.000811
747.000000, -0.001154
746.000000, -0.000876
745.000000, -0.000703
744.000000, -0.001124
743.000000, -0.001273
742.000000, -0.000111
741.000000, -0.000189
740.000000, -0.000435
739.000000, -0.000264
738.000000, -0.000307
737.000000, -0.001035
736.000000, -0.000194
735.000000, -0.000822
734.000000, -0.001832
733.000000, -0.001411
732.000000, -0.000899
731.000000, -0.001449
730.000000, -0.001656
729.000000, -0.000752
728.000000, -0.000751
727.000000, -0.000859
726.000000, -0.000785
725.000000, -0.000248
724.000000, -0.000749
723.000000, -0.001270
722.000000, -0.000802
721.000000, -0.000665
720.000000, -0.000598
719.000000, -0.000652
718.000000, -0.000506
717.000000, -0.001279
716.000000, -0.001015
715.000000, -0.000719
714.000000, -0.000029
713.000000, -0.000044
712.000000, -0.000510
711.000000, -0.001123
710.000000, -0.000561
709.000000, -0.000169
708.000000, -0.000235
707.000000, -0.000388
706.000000, 0.000115
705.000000, 0.000037
704.000000, -0.000631
703.000000, -0.001171
702.000000, -0.001430
701.000000, -0.001626
700.000000, -0.001047
699.000000, -0.000941
698.000000, -0.001275
697.000000, -0.001176
696.000000, 0.000043
695.000000, 0.000323
694.000000, -0.000249
693.000000, -0.000692
692.000000, -0.000395
691.000000, -0.000220
690.000000, -0.000618
689.000000, -0.000360
688.000000, -0.000449
687.000000, -0.001294
686.000000, -0.000629
685.000000, -0.000487
684.000000, -0.001186
683.000000, -0.000961
682.000000, -0.000479
681.000000, 0.000620
680.000000, 0.000226
679.000000, -0.000588
678.000000, -0.000022
677.000000, -0.000641
676.000000, -0.001079
675.000000, -0.000843
674.000000, -0.001325
673.000000, -0.000784
672.000000, 0.000134
671.000000, -0.000501
670.000000, -0.000365
669.000000, 0.000047
668.000000, -0.000288
667.000000, -0.000155
666.000000, -0.000466
665.000000, -0.001531
664.000000, -0.000974
663.000000, -0.000392
662.000000, -0.000652
661.000000, -0.000338
660.000000, -0.000104
659.000000, -0.000220
658.000000, -0.000064
657.000000, -0.000711
656.000000, -0.000399
655.000000, -0.000211
654.000000, -0.000103
653.000000, -0.000446
652.000000, -0.000961
651.000000, 0.000084
650.000000, -0.000164
649.000000, -0.000904
648.000000, -0.000117
647.000000, -0.000671
646.000000, -0.000551
645.000000, -0.000277
644.000000, 0.000800
643.000000, 0.000630
642.000000, -0.000810
641.000000, -0.000785
640.000000, -0.000356
639.000000, -0.000139
638.000000, -0.000124
637.000000, 0.000082
636.000000, -0.000056
635.000000, -0.000335
634.000000, 0.000028
633.000000, -0.000525
632.000000, -0.000284
631.000000, -0.000258
630.000000, -0.000508
629.000000, -0.000064
628.000000, 0.000809
627.000000, 0.000692
626.000000, 0.000980
625.000000, 0.000064
624.000000, 0.000401
623.000000, -0.000493
622.000000, 0.000026
621.000000, 0.000012
620.000000, 0.000072
619.000000, -0.000735
618.000000, -0.000216
617.000000, -0.000627
616.000000, 0.000145
615.000000, -0.000038
614.000000, -0.000498
613.000000, 0.000373
612.000000, 0.000466
611.000000, 0.000165
610.000000, 0.000849
609.000000, -0.000203
608.000000, -0.000475
607.000000, 0.000035
606.000000, -0.000173
605.000000, -0.000141
604.000000, 0.000196
603.000000, 0.000184
602.000000, 0.000525
601.000000, -0.000331
600.000000, -0.000161
599.000000, -0.000186
598.000000, 0.000580
597.000000, -0.000296
596.000000, 0.000520
595.000000, 0.001264
594.000000, 0.000310
593.000000, 0.000062
592.000000, -0.000715
591.000000, 0.000258
590.000000, 0.000294
589.000000, 0.000409
588.000000, 0.000274
587.000000, 0.000923
586.000000, 0.001364
585.000000, 0.000306
584.000000, 0.001221
583.000000, -0.000184
582.000000, -0.000864
581.000000, -0.000737
580.000000, 0.000654
579.000000, -0.000114
578.000000, 0.000300
577.000000, 0.000261
576.000000, 0.000348
575.000000, -0.001314
574.000000, 0.000073
573.000000, -0.000351
572.000000, -0.000230
571.000000, 0.000631
570.000000, -0.000020
569.000000, 0.000225
568.000000, 0.000596
567.000000, 0.001061
566.000000, 0.000343
565.000000, 0.000675
564.000000, 0.000149
563.000000, 0.000165
562.000000, -0.000127
561.000000, -0.000049
560.000000, -0.000227
559.000000, -0.001375
558.000000, 0.001489
557.000000, 0.000094
556.000000, -0.000797
555.000000, -0.000505
554.000000, 0.000094
553.000000, 0.000786
552.000000, 0.000526
551.000000, 0.000519
550.000000, -0.000319
549.000000, 0.000647
548.000000, 0.000537
547.000000, 0.001564
546.000000, 0.000849
545.000000, -0.000542
544.000000, 0.000595
543.000000, 0.000938
542.000000, 0.000539
541.000000, 0.001688
540.000000, 0.000792
539.000000, 0.001306
538.000000, 0.000577
537.000000, 0.001537
536.000000, 0.001136
535.000000, 0.001263
534.000000, 0.000486
533.000000, 0.000056
532.000000, 0.000955
531.000000, 0.001084
530.000000, 0.000873
529.000000, 0.001741
528.000000, 0.001562
527.000000, 0.000728
526.000000, 0.001703
525.000000, 0.001249
524.000000, 0.001289
523.000000, 0.001061
522.000000, 0.001388
521.000000, 0.001636
520.000000, 0.001919
519.000000, 0.002628
518.000000, 0.003870
517.000000, 0.006389
516.000000, 0.009718
515.000000, 0.014774
514.000000, 0.021606
513.000000, 0.030768
512.000000, 0.040935
511.000000, 0.049224
510.000000, 0.055771
509.000000, 0.056912
508.000000, 0.054131
507.000000, 0.049664
506.000000, 0.044998
505.000000, 0.040363
504.000000, 0.035791
503.000000, 0.031919
502.000000, 0.028974
501.000000, 0.026872
500.000000, 0.025397
499.000000, 0.024031
498.000000, 0.022688
497.000000, 0.022647
496.000000, 0.022539
495.000000, 0.022305
494.000000, 0.022556
493.000000, 0.022818
492.000000, 0.023454
491.000000, 0.024731
490.000000, 0.026328
489.000000, 0.027275
488.000000, 0.028655
487.000000, 0.030966
486.000000, 0.032973
485.000000, 0.035568
484.000000, 0.036146
483.000000, 0.037320
482.000000, 0.039620
481.000000, 0.040242
480.000000, 0.039581
479.000000, 0.039243
478.000000, 0.039056
477.000000, 0.038790
476.000000, 0.037647
475.000000, 0.035912
474.000000, 0.036172
473.000000, 0.035484
472.000000, 0.033866
471.000000, 0.032485
470.000000, 0.031041
469.000000, 0.029687
468.000000, 0.029274
467.000000, 0.028085
466.000000, 0.027601
465.000000, 0.027391
464.000000, 0.027276
463.000000, 0.026256
462.000000, 0.026449
461.000000, 0.025831
460.000000, 0.025420
459.000000, 0.024824
458.000000, 0.025841
457.000000, 0.024723
456.000000, 0.023972
455.000000, 0.024531
454.000000, 0.024808
453.000000, 0.024014
452.000000, 0.023218
451.000000, 0.023642
450.000000, 0.023432
449.000000, 0.023333
448.000000, 0.023981
447.000000, 0.023741
446.000000, 0.023743
445.000000, 0.023487
444.000000, 0.023594
443.000000, 0.023992
442.000000, 0.024313
441.000000, 0.024077
440.000000, 0.024679
439.000000, 0.026264
438.000000, 0.026923
437.000000, 0.026872
436.000000, 0.027133
435.000000, 0.027714
434.000000, 0.028670
433.000000, 0.028469
432.000000, 0.028699
431.000000, 0.029254
430.000000, 0.029873
429.000000, 0.030954
428.000000, 0.032474
427.000000, 0.033199
426.000000, 0.032378
425.000000, 0.032064
424.000000, 0.031547
423.000000, 0.031711
422.000000, 0.032583
421.000000, 0.032697
420.000000, 0.033270
419.000000, 0.033601
418.000000, 0.033213
417.000000, 0.032952
416.000000, 0.032603
415.000000, 0.033154
414.000000, 0.033243
413.000000, 0.033605
412.000000, 0.032854
411.000000, 0.031799
410.000000, 0.033390
409.000000, 0.033232
408.000000, 0.032700
407.000000, 0.032941
406.000000, 0.033239
405.000000, 0.033516
404.000000, 0.032321
403.000000, 0.032831
402.000000, 0.033033
401.000000, 0.033313
400.000000, 0.033278
399.000000, 0.033952
398.000000, 0.034832
397.000000, 0.032992
396.000000, 0.032352
395.000000, 0.033060
394.000000, 0.032677
393.000000, 0.033459
392.000000, 0.032204
391.000000, 0.032241
390.000000, 0.032281
389.000000, 0.032444
388.000000, 0.032951
387.000000, 0.032939
386.000000, 0.033424
385.000000, 0.032944
384.000000, 0.032318
383.000000, 0.032499
382.000000, 0.033021
381.000000, 0.033386
380.000000, 0.034234
379.000000, 0.033716
378.000000, 0.033089
377.000000, 0.033493
376.000000, 0.032393
375.000000, 0.032869
374.000000, 0.032885
373.000000, 0.032675
372.000000, 0.033047
371.000000, 0.033077
370.000000, 0.033214
369.000000, 0.033935
368.000000, 0.034010
367.000000, 0.033739
366.000000, 0.034369
365.000000, 0.034420
364.000000, 0.034809
363.000000, 0.033889
362.000000, 0.034554
361.000000, 0.034705
360.000000, 0.034942
359.000000, 0.035682
358.000000, 0.036745
357.000000, 0.037005
356.000000, 0.036297
355.000000, 0.036936
354.000000, 0.035079
353.000000, 0.037576
352.000000, 0.036983
351.000000, 0.037661
350.000000, 0.038053
349.000000, 0.037809
348.000000, 0.039272
347.000000, 0.040815
346.000000, 0.040867
345.000000, 0.042020
344.000000, 0.042746
343.000000, 0.043532
342.000000, 0.044091
341.000000, 0.045707
340.000000, 0.046954
339.000000, 0.048053
338.000000, 0.047851
337.000000, 0.049063
336.000000, 0.049698
335.000000, 0.051699
334.000000, 0.051952
333.000000, 0.054339
332.000000, 0.056322
331.000000, 0.055516
330.000000, 0.057374
329.000000, 0.060468
328.000000, 0.061863
327.000000, 0.063265
326.000000, 0.064893
325.000000, 0.068262
324.000000, 0.070365
323.000000, 0.073604
322.000000, 0.076000
321.000000, 0.078384
320.000000, 0.079910
319.000000, 0.082076
318.000000, 0.083210
317.000000, 0.086003
316.000000, 0.086347
315.000000, 0.088188
314.000000, 0.089212
313.000000, 0.091541
312.000000, 0.092062
311.000000, 0.093272
310.000000, 0.094100
309.000000, 0.096424
308.000000, 0.097057
307.000000, 0.097422
306.000000, 0.098688
305.000000, 0.100763
304.000000, 0.103121
303.000000, 0.103480
302.000000, 0.104861
301.000000, 0.105403
300.000000, 0.105933
