nm, A
800.000000, -0.000854
799.000000, -0.001502
798.000000, -0.001201
797.000000, -0.002218
796.000000, -0.000599
795.000000, -0.001757
794.000000, -0.000314
793.000000, -0.000294
792.000000, -0.000091
791.000000, -0.001261
790.000000, -0.001339
789.000000, -0.001385
788.000000, -0.000198
787.000000, -0.002277
786.000000, -0.001018
785.000000, -0.000774
784.000000, -0.001591
783.000000, -0.000842
782.000000, -0.001273
781.000000, -0.000746
780.000000, -0.000842
779.000000, -0.001448
778.000000, 0.000219
777.000000, -0.001501
776.000000, -0.001343
775.000000, -0.000002
774.000000, -0.000374
773.000000, -0.000783
772.000000, -0.000130
771.000000, -0.000432
770.000000, -0.000189
769.000000, -0.000572
768.000000, -0.001053
767.000000, 0.000308
766.000000, -0.000300
765.000000, 0.000499
764.000000, 0.000297
763.000000, -0.000140
762.000000, -0.000284
761.000000, -0.000132
760.000000, -0.001351
759.000000, -0.000834
758.000000, 0.000091
757.000000, 0.000670
756.000000, -0.000638
755.000000, -0.001271
754.000000, -0.001268
753.000000, -0.000793
752.000000, -0.000828
751.000000, -0.000227
750.000000, 0.000613
749.000000, -0.001320
748.000000, -0.001153
747.000000, -0.000798
746.000000, -0.000959
745.000000, -0.001234
744.000000, -0.000496
743.000000, -0.000807
742.000000, 0.000008
741.000000, -0.000396
740.000000, -0.000502
739.000000, -0.000012
738.000000, -0.000798
737.000000, -0.000857
736.000000, -0.000121
735.000000, 0.000108
734.000000, -0.001046
733.000000, -0.001143
732.000000, -0.000107
731.000000, -0.000183
730.000000, -0.000408
729.000000, -0.000045
728.000000, 0.000107
727.000000, -0.000381
726.000000, -0.000264
725.000000, 0.000067
724.000000, -0.000571
723.000000, -0.001412
722.000000, -0.001654
721.000000, -0.001060
720.000000, -0.000623
719.000000, -0.000426
718.000000, -0.000655
717.000000, -0.000667
716.000000, -0.000700
715.000000, -0.000544
714.000000, -0.000397
713.000000, 0.000626
712.000000, -0.000135
711.000000, -0.000292
710.000000, -0.000194
709.000000, -0.000475
708.000000, -0.000277
707.000000, 0.000859
706.000000, 0.000436
705.000000, 0.000616
704.000000, 0.000166
703.000000, -0.000164
702.000000, -0.000537
701.000000, -0.000447
700.000000, -0.000330
699.000000, -0.000957
698.000000, -0.000385
697.000000, -0.000243
696.000000, -0.000276
695.000000, -0.000124
694.000000, -0.000583
693.000000, -0.001086
692.000000, -0.000076
691.000000, 0.000066
690.000000, -0.000681
689.000000, -0.000502
688.000000, 0.000234
687.000000, -0.000469
686.000000, -0.001404
685.000000, -0.001280
684.000000, -0.000450
683.000000, -0.000699
682.000000, -0.000618
681.000000, 0.000127
680.000000, -0.000192
679.000000, -0.000605
678.000000, -0.000302
677.000000, -0.000516
676.000000, -0.000506
675.000000, -0.000215
674.000000, -0.000845
673.000000, -0.000674
672.000000, 0.000257
671.000000, -0.000776
670.000000, -0.000950
669.000000, -0.000458
668.000000, -0.001092
667.000000, -0.001845
666.000000, -0.001046
665.000000, -0.000577
664.000000, -0.000404
663.000000, -0.000037
662.000000, -0.000362
661.000000, -0.000735
660.000000, 0.000054
659.000000, 0.000324
658.000000, -0.000582
657.000000, -0.000653
656.000000, -0.000016
655.000000, -0.000216
654.000000, -0.000150
653.000000, -0.000296
652.000000, -0.000673
651.000000, -0.000302
650.000000, 0.000372
649.000000, -0.000039
648.000000, 0.000237
647.000000, -0.000866
646.000000, 0.000068
645.000000, 0.000541
644.000000, 0.000465
643.000000, 0.000053
642.000000, -0.001029
641.000000, -0.000148
640.000000, 0.000331
639.000000, 0.000073
638.000000, 0.000629
637.000000, -0.000153
636.000000, -0.000249
635.000000, 0.000519
634.000000, 0.000345
633.000000, -0.000384
632.000000, -0.000621
631.000000, -0.000920
630.000000, -0.001024
629.000000, 0.000267
628.000000, 0.000060
627.000000, 0.000151
626.000000, 0.000168
625.000000, 0.000066
624.000000, 0.000076
623.000000, 0.000144
622.000000, -0.000323
621.000000, 0.000282
620.000000, -0.000244
619.000000, -0.000110
618.000000, -0.000300
617.000000, 0.000088
616.000000, 0.001118
615.000000, 0.000720
614.000000, 0.000195
613.000000, 0.000683
612.000000, 0.000490
611.000000, -0.000066
610.000000, 0.000589
609.000000, 0.000226
608.000000, 0.000011
607.000000, 0.000609
606.000000, -0.000356
605.000000, 0.000338
604.000000, 0.000583
603.000000, 0.000830
602.000000, 0.001229
601.000000, -0.000368
600.000000, -0.000049
599.000000, 0.000190
598.000000, 0.000466
597.000000, -0.000350
596.000000, 0.000881
595.000000, 0.001564
594.000000, 0.000963
593.000000, 0.000758
592.000000, -0.000121
591.000000, -0.000353
590.000000, 0.000286
589.000000, 0.000886
588.000000, 0.000064
587.000000, -0.000062
586.000000, 0.000538
585.000000, 0.000341
584.000000, 0.000087
583.000000, -0.000159
582.000000, -0.000280
581.000000, 0.000305
580.000000, 0.000772
579.000000, -0.000260
578.000000, 0.000738
577.000000, 0.001496
576.000000, 0.000496
575.000000, -0.000238
574.000000, 0.000399
573.000000, 0.000343
572.000000, -0.000313
571.000000, 0.000074
570.000000, -0.000157
569.000000, 0.001212
568.000000, 0.000510
567.000000, 0.001193
566.000000, 0.000856
565.000000, 0.000506
564.000000, 0.000073
563.000000, 0.000343
562.000000, -0.000273
561.000000, -0.000747
560.000000, -0.001180
559.000000, -0.000091
558.000000, 0.001836
557.000000, -0.000157
556.000000, -0.000189
555.000000, -0.000111
554.000000, -0.001179
553.000000, -0.000073
552.000000, 0.000584
551.000000, 0.000534
550.000000, 0.000834
549.000000, -0.000022
548.000000, 0.001247
547.000000, 0.001010
546.000000, 0.000888
545.000000, -0.000301
544.000000, 0.001206
543.000000, 0.000693
542.000000, 0.001841
541.000000, 0.000837
540.000000, 0.000651
539.000000, 0.000591
538.000000, -0.000238
537.000000, 0.000429
536.000000, 0.001093
535.000000, 0.000979
534.000000, 0.001391
533.000000, -0.000314
532.000000, 0.000610
531.000000, 0.000775
530.000000, 0.000515
529.000000, 0.001179
528.000000, 0.001168
527.000000, 0.001386
526.000000, 0.001726
525.000000, 0.001044
524.000000, 0.002020
523.000000, 0.001174
522.000000, 0.001916
521.000000, 0.002505
520.000000, 0.001811
519.000000, 0.001870
518.000000, 0.004196
517.000000, 0.007685
516.000000, 0.010343
515.000000, 0.015656
514.000000, 0.023038
513.000000, 0.032787
512.000000, 0.041651
511.000000, 0.050453
510.000000, 0.054562
509.000000, 0.054520
508.000000, 0.053015
507.000000, 0.048869
506.000000, 0.044060
505.000000, 0.038793
504.000000, 0.035310
503.000000, 0.032051
502.000000, 0.027958
501.000000, 0.025901
500.000000, 0.024807
499.000000, 0.023435
498.000000, 0.023384
497.000000, 0.023114
496.000000, 0.023348
495.000000, 0.023013
494.000000, 0.022736
493.000000, 0.023197
492.000000, 0.023898
491.000000, 0.025053
490.000000, 0.026939
489.000000, 0.026748
488.000000, 0.028713
487.000000, 0.030712
486.000000, 0.032301
485.000000, 0.034174
484.000000, 0.035525
483.000000, 0.037458
482.000000, 0.039847
481.000000, 0.039880
480.000000, 0.039002
479.000000, 0.038703
478.000000, 0.039635
477.000000, 0.038662
476.000000, 0.037066
475.000000, 0.035943
474.000000, 0.035091
473.000000, 0.034297
472.000000, 0.033007
471.000000, 0.031755
470.000000, 0.030276
469.000000, 0.029691
468.000000, 0.028616
467.000000, 0.027712
466.000000, 0.027617
465.000000, 0.027582
464.000000, 0.027044
463.000000, 0.025941
462.000000, 0.025771
461.000000, 0.025698
460.000000, 0.026031
459.000000, 0.025149
458.000000, 0.024662
457.000000, 0.024381
456.000000, 0.024649
455.000000, 0.024151
454.000000, 0.024275
453.000000, 0.024604
452.000000, 0.023944
451.000000, 0.023941
450.000000, 0.024127
449.000000, 0.024314
448.000000, 0.023716
447.000000, 0.023859
446.000000, 0.023391
445.000000, 0.023833
444.000000, 0.024881
443.000000, 0.024953
442.000000, 0.024381
441.000000, 0.024973
440.000000, 0.025408
439.000000, 0.025760
438.000000, 0.026916
437.000000, 0.027433
436.000000, 0.026876
435.000000, 0.027602
434.000000, 0.028928
433.000000, 0.028648
432.000000, 0.029130
431.000000, 0.030086
430.000000, 0.029603
429.000000, 0.030511
428.000000, 0.031396
427.000000, 0.031288
426.000000, 0.031925
425.000000, 0.031612
424.000000, 0.031969
423.000000, 0.032901
422.000000, 0.032596
421.000000, 0.033017
420.000000, 0.033551
419.000000, 0.033153
418.000000, 0.033512
417.000000, 0.033178
416.000000, 0.032701
415.000000, 0.033109
414.000000, 0.033342
413.000000, 0.033852
412.000000, 0.033244
411.000000, 0.032048
410.000000, 0.032302
409.000000, 0.033286
408.000000, 0.032533
407.000000, 0.032910
406.000000, 0.033738
405.000000, 0.033389
404.000000, 0.033418
403.000000, 0.033236
402.000000, 0.033304
401.000000, 0.033312
400.000000, 0.032568
399.000000, 0.033593
398.000000, 0.034123
397.000000, 0.032886
396.000000, 0.032751
395.000000, 0.032451
394.000000, 0.031875
393.000000, 0.032441
392.000000, 0.032074
391.000000, 0.031823
390.000000, 0.031866
389.000000, 0.032056
388.000000, 0.032120
387.000000, 0.033015
386.000000, 0.033943
385.000000, 0.033489
384.000000, 0.032240
383.000000, 0.032696
382.000000, 0.033825
381.000000, 0.032385
380.000000, 0.032587
379.000000, 0.033145
378.000000, 0.033579
377.000000, 0.033154
376.000000, 0.033010
375.000000, 0.032308
374.000000, 0.032447
373.000000, 0.032070
372.000000, 0.032622
371.000000, 0.033407
370.000000, 0.033618
369.000000, 0.033698
368.000000, 0.034208
367.000000, 0.034262
366.000000, 0.033750
365.000000, 0.034411
364.000000, 0.034173
363.000000, 0.034901
362.000000, 0.034962
361.000000, 0.034000
360.000000, 0.033784
359.000000, 0.035279
358.000000, 0.035794
357.000000, 0.035747
356.000000, 0.036250
355.000000, 0.037026
354.000000, 0.036159
353.000000, 0.036132
352.000000, 0.036786
351.000000, 0.036839
350.000000, 0.037688
349.000000, 0.037625
348.000000, 0.039308
347.000000, 0.041510
346.000000, 0.040551
345.000000, 0.042455
344.000000, 0.042167
343.000000, 0.043430
342.000000, 0.044224
341.000000, 0.046006
340.000000, 0.046525
339.000000, 0.048027
338.000000, 0.048480
337.000000, 0.049063
336.000000, 0.049862
335.000000, 0.051679
334.000000, 0.052545
333.000000, 0.053560
332.000000, 0.055060
331.000000, 0.056794
330.000000, 0.057200
329.000000, 0.060981
328.000000, 0.062145
327.000000, 0.063961
326.000000, 0.065146
325.000000, 0.067986
324.000000, 0.070128
323.000000, 0.073594
322.000000, 0.076045
321.000000, 0.078646
320.000000, 0.080076
319.000000, 0.081566
318.000000, 0.084061
317.000000, 0.085115
316.000000, 0.086100
315.000000, 0.087469
314.000000, 0.089493
313.000000, 0.090850
312.000000, 0.091700
311.000000, 0.092143
310.000000, 0.092633
309.000000, 0.095889
308.000000, 0.096822
307.000000, 0.096985
306.000000, 0.098741
305.000000, 0.100362
304.000000, 0.101413
303.000000, 0.102651
302.000000, 0.102874
301.000000, 0.104905
300.000000, 0.105081
