nm, A
800.000000, 0.001908
799.000000, 0.004069
798.000000, 0.002583
797.000000, 0.002994
796.000000, 0.003410
795.000000, 0.003092
794.000000, 0.003250
793.000000, 0.003337
792.000000, 0.004001
791.000000, 0.003388
790.000000, 0.002293
789.000000, 0.002774
788.000000, 0.004010
787.000000, 0.002657
786.000000, 0.001973
785.000000, 0.003487
784.000000, 0.002527
783.000000, 0.003648
782.000000, 0.003710
781.000000, 0.003202
780.000000, 0.002376
779.000000, 0.002073
778.000000, 0.004251
777.000000, 0.003241
776.000000, 0.003490
775.000000, 0.004120
774.000000, 0.003398
773.000000, 0.003479
772.000000, 0.005412
771.000000, 0.004383
770.000000, 0.003795
769.000000, 0.003064
768.000000, 0.002936
767.000000, 0.004297
766.000000, 0.003847
765.000000, 0.003410
764.000000, 0.004090
763.000000, 0.004627
762.000000, 0.004643
761.000000, 0.003335
760.000000, 0.003469
759.000000, 0.003849
758.000000, 0.004115
757.000000, 0.004517
756.000000, 0.004174
755.000000, 0.004172
754.000000, 0.004269
753.000000, 0.003625
752.000000, 0.003235
751.000000, 0.003846
750.000000, 0.003518
749.000000, 0.002351
748.000000, 0.003167
747.000000, 0.002825
746.000000, 0.002709
745.000000, 0.003541
744.000000, 0.004097
743.000000, 0.002722
742.000000, 0.004501
741.000000, 0.004031
740.000000, 0.004139
739.000000, 0.003676
738.000000, 0.003844
737.000000, 0.003349
736.000000, 0.004279
735.000000, 0.003907
734.000000, 0.003094
733.000000, 0.003568
732.000000, 0.004140
731.000000, 0.003637
730.000000, 0.003361
729.000000, 0.003818
728.000000, 0.005014
727.000000, 0.005757
726.000000, 0.005162
725.000000, 0.004187
724.000000, 0.004394
723.000000, 0.003989
722.000000, 0.002996
721.000000, 0.003715
720.000000, 0.004411
719.000000, 0.005019
718.000000, 0.004977
717.000000, 0.003446
716.000000, 0.004150
715.000000, 0.004010
714.000000, 0.004199
713.000000, 0.004491
712.000000, 0.004262
711.000000, 0.004140
710.000000, 0.003943
709.000000, 0.004800
708.000000, 0.004909
707.000000, 0.005325
706.000000, 0.005164
705.000000, 0.005133
704.000000, 0.004277
703.000000, 0.004392
702.000000, 0.004217
701.000000, 0.004262
700.000000, 0.005152
699.000000, 0.005320
698.000000, 0.005035
697.000000, 0.004507
696.000000, 0.005249
695.000000, 0.005521
694.000000, 0.004956
693.000000, 0.004013
692.000000, 0.004109
691.000000, 0.004845
690.000000, 0.004712
689.000000, 0.004223
688.000000, 0.004116
687.000000, 0.004088
686.000000, 0.004611
685.000000, 0.004155
684.000000, 0.004153
683.000000, 0.005285
682.000000, 0.005650
681.000000, 0.005991
680.000000, 0.005262
679.000000, 0.004681
678.000000, 0.005036
677.000000, 0.004384
676.000000, 0.004237
675.000000, 0.005492
674.000000, 0.005272
673.000000, 0.004994
672.000000, 0.004819
671.000000, 0.004297
670.000000, 0.005053
669.000000, 0.005145
668.000000, 0.004896
667.000000, 0.005255
666.000000, 0.005099
665.000000, 0.004835
664.000000, 0.004338
663.000000, 0.004666
662.000000, 0.005512
661.000000, 0.005857
660.000000, 0.005748
659.000000, 0.006122
658.000000, 0.006657
657.000000, 0.005874
656.000000, 0.006206
655.000000, 0.005598
654.000000, 0.005434
653.000000, 0.005946
652.000000, 0.005207
651.000000, 0.004460
650.000000, 0.005785
649.000000, 0.006260
648.000000, 0.006250
647.000000, 0.005561
646.000000, 0.005953
645.000000, 0.006011
644.000000, 0.006041
643.000000, 0.005942
642.000000, 0.005469
641.000000, 0.006168
640.000000, 0.007190
639.000000, 0.006790
638.000000, 0.006381
637.000000, 0.006532
636.000000, 0.006607
635.000000, 0.006595
634.000000, 0.006110
633.000000, 0.005341
632.000000, 0.005576
631.000000, 0.006197
630.000000, 0.005928
629.000000, 0.007430
628.000000, 0.006952
627.000000, 0.006213
626.000000, 0.006848
625.000000, 0.005827
624.000000, 0.006197
623.000000, 0.006231
622.000000, 0.006869
621.000000, 0.007104
620.000000, 0.006532
619.000000, 0.006560
618.000000, 0.007256
617.000000, 0.006229
616.000000, 0.007463
615.000000, 0.007248
614.000000, 0.007159
613.000000, 0.007419
612.000000, 0.006641
611.000000, 0.007414
610.000000, 0.006939
609.000000, 0.007046
608.000000, 0.007023
607.000000, 0.006849
606.000000, 0.007082
605.000000, 0.007711
604.000000, 0.009161
603.000000, 0.007878
602.000000, 0.007862
601.000000, 0.007711
600.000000, 0.007363
599.000000, 0.006539
598.000000, 0.007882
597.000000, 0.006815
596.000000, 0.008078
595.000000, 0.007436
594.000000, 0.008621
593.000000, 0.008377
592.000000, 0.007417
591.000000, 0.007383
590.000000, 0.008084
589.000000, 0.008226
588.000000, 0.008211
587.000000, 0.008143
586.000000, 0.008553
585.000000, 0.008407
584.000000, 0.008342
583.000000, 0.007763
582.000000, 0.007653
581.000000, 0.008821
580.000000, 0.009433
579.000000, 0.008386
578.000000, 0.008587
577.000000, 0.008740
576.000000, 0.008442
575.000000, 0.008017
574.000000, 0.008358
573.000000, 0.008362
572.000000, 0.009365
571.000000, 0.009194
570.000000, 0.009248
569.000000, 0.009549
568.000000, 0.009944
567.000000, 0.009293
566.000000, 0.009651
565.000000, 0.009142
564.000000, 0.008446
563.000000, 0.009506
562.000000, 0.008660
561.000000, 0.009311
560.000000, 0.009438
559.000000, 0.008786
558.000000, 0.010560
557.000000, 0.009644
556.000000, 0.009824
555.000000, 0.009414
554.000000, 0.010015
553.000000, 0.009849
552.000000, 0.011209
551.000000, 0.009539
550.000000, 0.011203
549.000000, 0.010643
548.000000, 0.010342
547.000000, 0.011558
546.000000, 0.011563
545.000000, 0.010960
544.000000, 0.011632
543.000000, 0.012307
542.000000, 0.011614
541.000000, 0.012315
540.000000, 0.011942
539.000000, 0.012203
538.000000, 0.011387
537.000000, 0.011851
536.000000, 0.011868
535.000000, 0.011992
534.000000, 0.013401
533.000000, 0.012900
532.000000, 0.012782
531.000000, 0.012231
530.000000, 0.012967
529.000000, 0.013697
528.000000, 0.014634
527.000000, 0.014794
526.000000, 0.015188
525.000000, 0.015276
524.000000, 0.015949
523.000000, 0.016926
522.000000, 0.017668
521.000000, 0.018818
520.000000, 0.019602
519.000000, 0.021858
518.000000, 0.025567
517.000000, 0.030749
516.000000, 0.038352
515.000000, 0.049852
514.000000, 0.061394
513.000000, 0.073570
512.000000, 0.081774
511.000000, 0.085024
510.000000, 0.082918
509.000000, 0.076865
508.000000, 0.069955
507.000000, 0.063367
506.000000, 0.057210
505.000000, 0.052774
504.000000, 0.049060
503.000000, 0.046525
502.000000, 0.043990
501.000000, 0.042513
500.000000, 0.042336
499.000000, 0.041105
498.000000, 0.040508
497.000000, 0.041174
496.000000, 0.040888
495.000000, 0.040601
494.000000, 0.041453
493.000000, 0.042272
492.000000, 0.043921
491.000000, 0.045489
490.000000, 0.047611
489.000000, 0.048485
488.000000, 0.050467
487.000000, 0.052972
486.000000, 0.055539
485.000000, 0.057924
484.000000, 0.059658
483.000000, 0.061468
482.000000, 0.061976
481.000000, 0.062699
480.000000, 0.063589
479.000000, 0.061719
478.000000, 0.059936
477.000000, 0.058929
476.000000, 0.057864
475.000000, 0.056236
474.000000, 0.055635
473.000000, 0.053819
472.000000, 0.052299
471.000000, 0.050662
470.000000, 0.049471
469.000000, 0.048134
468.000000, 0.046025
467.000000, 0.045014
466.000000, 0.044974
465.000000, 0.044962
464.000000, 0.044259
463.000000, 0.042892
462.000000, 0.043383
461.000000, 0.043176
460.000000, 0.042907
459.000000, 0.042285
458.000000, 0.041785
457.000000, 0.041522
456.000000, 0.041008
455.000000, 0.040896
454.000000, 0.041751
453.000000, 0.041559
452.000000, 0.039923
451.000000, 0.040726
450.000000, 0.041370
449.000000, 0.041372
448.000000, 0.041508
447.000000, 0.042095
446.000000, 0.042102
445.000000, 0.042690
444.000000, 0.042643
443.000000, 0.043190
442.000000, 0.043633
441.000000, 0.044151
440.000000, 0.044599
439.000000, 0.045394
438.000000, 0.047609
437.000000, 0.047974
436.000000, 0.048347
435.000000, 0.049789
434.000000, 0.050632
433.000000, 0.050849
432.000000, 0.051709
431.000000, 0.052003
430.000000, 0.052146
429.000000, 0.053261
428.000000, 0.053991
427.000000, 0.054235
426.000000, 0.054411
425.000000, 0.053903
424.000000, 0.054226
423.000000, 0.055238
422.000000, 0.054752
421.000000, 0.054526
420.000000, 0.055499
419.000000, 0.055430
418.000000, 0.054636
417.000000, 0.055044
416.000000, 0.055173
415.000000, 0.054949
414.000000, 0.054834
413.000000, 0.055552
412.000000, 0.055052
411.000000, 0.054351
410.000000, 0.055081
409.000000, 0.055529
408.000000, 0.054589
407.000000, 0.054908
406.000000, 0.055866
405.000000, 0.055686
404.000000, 0.055464
403.000000, 0.055838
402.000000, 0.055965
401.000000, 0.055961
400.000000, 0.055093
399.000000, 0.054974
398.000000, 0.056295
397.000000, 0.054804
396.000000, 0.054404
395.000000, 0.055491
394.000000, 0.055275
393.000000, 0.056261
392.000000, 0.055556
391.000000, 0.055873
390.000000, 0.055707
389.000000, 0.055692
388.000000, 0.056348
387.000000, 0.056443
386.000000, 0.056505
385.000000, 0.056105
384.000000, 0.055513
383.000000, 0.056608
382.000000, 0.057095
381.000000, 0.056108
380.000000, 0.057572
379.000000, 0.058265
378.000000, 0.056988
377.000000, 0.056719
376.000000, 0.056676
375.000000, 0.056846
374.000000, 0.056968
373.000000, 0.056312
372.000000, 0.056854
371.000000, 0.058025
370.000000, 0.058364
369.000000, 0.059053
368.000000, 0.058827
367.000000, 0.059094
366.000000, 0.059360
365.000000, 0.059883
364.000000, 0.059946
363.000000, 0.060024
362.000000, 0.060185
361.000000, 0.060873
360.000000, 0.060604
359.000000, 0.061766
358.000000, 0.062247
357.000000, 0.063032
356.000000, 0.062864
355.000000, 0.063258
354.000000, 0.063958
353.000000, 0.064407
352.000000, 0.065087
351.000000, 0.065857
350.000000, 0.067145
349.000000, 0.066693
348.000000, 0.068431
347.000000, 0.071203
346.000000, 0.070793
345.000000, 0.071913
344.000000, 0.073058
343.000000, 0.074564
342.000000, 0.075927
341.000000, 0.076629
340.000000, 0.077414
339.000000, 0.080387
338.000000, 0.081198
337.000000, 0.082781
336.000000, 0.082725
335.000000, 0.084874
334.000000, 0.086716
333.000000, 0.089515
332.000000, 0.091306
331.000000, 0.092776
330.000000, 0.094344
329.000000, 0.097453
328.000000, 0.100200
327.000000, 0.102288
326.000000, 0.103768
325.000000, 0.107035
324.000000, 0.109717
323.000000, 0.114397
322.000000, 0.115822
321.000000, 0.119167
320.000000, 0.120140
319.000000, 0.121838
318.000000, 0.124209
317.000000, 0.126838
316.000000, 0.127413
315.000000, 0.129519
314.000000, 0.130879
313.000000, 0.132460
312.000000, 0.134857
311.000000, 0.135311
310.000000, 0.136309
309.000000, 0.139588
308.000000, 0.140030
307.000000, 0.141198
306.000000, 0.143250
305.000000, 0.144490
304.000000, 0.147035
303.000000, 0.148194
302.000000, 0.149426
301.000000, 0.150894
300.000000, 0.151265
