nm, A
800.000000, -0.000331
799.000000, -0.000681
798.000000, -0.000568
797.000000, -0.001287
796.000000, -0.000963
795.000000, -0.000743
794.000000, -0.000348
793.000000, -0.000249
792.000000, -0.000139
791.000000, -0.000509
790.000000, -0.001508
789.000000, -0.000569
788.000000, 0.000315
787.000000, -0.000714
786.000000, -0.001319
785.000000, -0.000397
784.000000, -0.000952
783.000000, -0.000266
782.000000, -0.000256
781.000000, -0.000501
780.000000, -0.000392
779.000000, -0.001102
778.000000, -0.000058
777.000000, -0.000365
776.000000, 0.000080
775.000000, -0.000327
774.000000, 0.000536
773.000000, 0.000103
772.000000, 0.000779
771.000000, -0.000131
770.000000, 0.000924
769.000000, 0.000061
768.000000, -0.000394
767.000000, 0.000772
766.000000, 0.000322
765.000000, 0.000522
764.000000, -0.000425
763.000000, 0.000773
762.000000, -0.000241
761.000000, -0.000815
760.000000, -0.000249
759.000000, -0.000581
758.000000, 0.000027
757.000000, -0.000048
756.000000, -0.000440
755.000000, 0.000367
754.000000, 0.000400
753.000000, 0.000082
752.000000, -0.000075
751.000000, 0.000720
750.000000, 0.000900
749.000000, -0.000415
748.000000, -0.000408
747.000000, -0.000071
746.000000, -0.000349
745.000000, -0.000271
744.000000, -0.000373
743.000000, -0.001200
742.000000, 0.000539
741.000000, 0.000247
740.000000, -0.000294
739.000000, 0.000696
738.000000, 0.001226
737.000000, -0.000182
736.000000, 0.000390
735.000000, 0.000067
734.000000, -0.000495
733.000000, -0.000558
732.000000, 0.000422
731.000000, -0.000047
730.000000, 0.000327
729.000000, 0.000475
728.000000, 0.000816
727.000000, 0.000372
726.000000, 0.000135
725.000000, -0.000517
724.000000, -0.000532
723.000000, -0.000334
722.000000, -0.000089
721.000000, 0.000646
720.000000, 0.000083
719.000000, -0.000020
718.000000, -0.000298
717.000000, -0.000497
716.000000, 0.000222
715.000000, -0.000174
714.000000, 0.000150
713.000000, 0.000348
712.000000, 0.000357
711.000000, -0.000433
710.000000, -0.000276
709.000000, 0.000183
708.000000, 0.000795
707.000000, 0.000883
706.000000, 0.000928
705.000000, 0.001107
704.000000, 0.000134
703.000000, -0.000569
702.000000, -0.000194
701.000000, -0.000159
700.000000, -0.000084
699.000000, -0.000681
698.000000, -0.000312
697.000000, -0.000230
696.000000, 0.000156
695.000000, 0.001027
694.000000, 0.000379
693.000000, -0.000750
692.000000, -0.000045
691.000000, 0.000706
690.000000, 0.000741
689.000000, 0.000164
688.000000, -0.000539
687.000000, -0.000707
686.000000, -0.000632
685.000000, -0.000906
684.000000, -0.000939
683.000000, 0.000694
682.000000, 0.000867
681.000000, 0.000839
680.000000, 0.000818
679.000000, 0.000490
678.000000, 0.000123
677.000000, -0.000350
676.000000, 0.000140
675.000000, 0.000182
674.000000, 0.000092
673.000000, 0.000593
672.000000, 0.000391
671.000000, 0.000453
670.000000, -0.000001
669.000000, -0.000287
668.000000, 0.000193
667.000000, 0.000551
666.000000, 0.000974
665.000000, 0.000577
664.000000, -0.000265
663.000000, -0.000080
662.000000, 0.000213
661.000000, 0.000357
660.000000, 0.001211
659.000000, 0.001323
658.000000, 0.001268
657.000000, 0.001080
656.000000, 0.001791
655.000000, 0.000970
654.000000, 0.000015
653.000000, 0.000302
652.000000, 0.000131
651.000000, 0.000498
650.000000, 0.000155
649.000000, 0.000472
648.000000, 0.000926
647.000000, 0.000538
646.000000, 0.000534
645.000000, 0.000765
644.000000, 0.000851
643.000000, 0.000561
642.000000, 0.000144
641.000000, 0.000673
640.000000, 0.001317
639.000000, 0.001157
638.000000, 0.001165
637.000000, 0.000786
636.000000, -0.000093
635.000000, -0.000053
634.000000, -0.000333
633.000000, -0.000051
632.000000, 0.000063
631.000000, 0.000459
630.000000, 0.000639
629.000000, 0.000450
628.000000, 0.000906
627.000000, 0.001384
626.000000, 0.000947
625.000000, 0.001292
624.000000, 0.001598
623.000000, 0.000241
622.000000, -0.000028
621.000000, 0.000924
620.000000, 0.000976
619.000000, 0.001010
618.000000, 0.001097
617.000000, 0.000266
616.000000, 0.001325
615.000000, 0.001470
614.000000, 0.001286
613.000000, 0.001445
612.000000, 0.001164
611.000000, 0.001385
610.000000, 0.000872
609.000000, 0.000550
608.000000, 0.000016
607.000000, 0.001125
606.000000, 0.000413
605.000000, 0.001145
604.000000, 0.001785
603.000000, 0.002137
602.000000, 0.002666
601.000000, 0.000931
600.000000, 0.001156
599.000000, 0.000690
598.000000, 0.001758
597.000000, 0.001973
596.000000, 0.001903
595.000000, 0.000868
594.000000, 0.001369
593.000000, 0.000936
592.000000, 0.001599
591.000000, 0.001790
590.000000, 0.001189
589.000000, 0.001846
588.000000, 0.000398
587.000000, 0.001648
586.000000, 0.001449
585.000000, 0.001057
584.000000, 0.001698
583.000000, 0.000723
582.000000, 0.001205
581.000000, 0.000759
580.000000, 0.001900
579.000000, 0.000795
578.000000, 0.000795
577.000000, 0.001380
576.000000, 0.001497
575.000000, 0.000759
574.000000, 0.001397
573.000000, 0.001155
572.000000, 0.001408
571.000000, 0.001796
570.000000, 0.001611
569.000000, 0.001637
568.000000, 0.002499
567.000000, 0.001797
566.000000, 0.001617
565.000000, 0.002280
564.000000, 0.001432
563.000000, 0.000911
562.000000, 0.001668
561.000000, 0.001621
560.000000, 0.001479
559.000000, 0.001371
558.000000, 0.002506
557.000000, 0.001285
556.000000, 0.001543
555.000000, 0.001668
554.000000, 0.002181
553.000000, 0.001873
552.000000, 0.001904
551.000000, 0.001549
550.000000, 0.002836
549.000000, 0.001562
548.000000, 0.002348
547.000000, 0.003006
546.000000, 0.002383
545.000000, 0.001133
544.000000, 0.003068
543.000000, 0.002774
542.000000, 0.002734
541.000000, 0.003370
540.000000, 0.003432
539.000000, 0.002582
538.000000, 0.002130
537.000000, 0.002724
536.000000, 0.002747
535.000000, 0.002953
534.000000, 0.002369
533.000000, 0.001999
532.000000, 0.002804
531.000000, 0.002747
530.000000, 0.003387
529.000000, 0.003171
528.000000, 0.003692
527.000000, 0.003510
526.000000, 0.004356
525.000000, 0.004018
524.000000, 0.004587
523.000000, 0.004918
522.000000, 0.005102
521.000000, 0.005429
520.000000, 0.007001
519.000000, 0.008611
518.000000, 0.012085
517.000000, 0.017072
516.000000, 0.025703
515.000000, 0.038141
514.000000, 0.053386
513.000000, 0.068186
512.000000, 0.080023
511.000000, 0.085405
510.000000, 0.084786
509.000000, 0.077974
508.000000, 0.069233
507.000000, 0.062436
506.000000, 0.055883
505.000000, 0.049796
504.000000, 0.045703
503.000000, 0.041771
502.000000, 0.039166
501.000000, 0.037880
500.000000, 0.037244
499.000000, 0.036065
498.000000, 0.035017
497.000000, 0.035123
496.000000, 0.035070
495.000000, 0.035356
494.000000, 0.035289
493.000000, 0.035950
492.000000, 0.038002
491.000000, 0.039339
490.000000, 0.042026
489.000000, 0.042538
488.000000, 0.044495
487.000000, 0.048205
486.000000, 0.051591
485.000000, 0.054960
484.000000, 0.057251
483.000000, 0.058638
482.000000, 0.060032
481.000000, 0.060662
480.000000, 0.059944
479.000000, 0.059088
478.000000, 0.059095
477.000000, 0.058383
476.000000, 0.056622
475.000000, 0.053889
474.000000, 0.052518
473.000000, 0.051265
472.000000, 0.047947
471.000000, 0.046670
470.000000, 0.045460
469.000000, 0.044597
468.000000, 0.042902
467.000000, 0.041636
466.000000, 0.041079
465.000000, 0.040540
464.000000, 0.039535
463.000000, 0.037761
462.000000, 0.038133
461.000000, 0.037400
460.000000, 0.037604
459.000000, 0.036540
458.000000, 0.036615
457.000000, 0.036264
456.000000, 0.036006
455.000000, 0.036410
454.000000, 0.036581
453.000000, 0.035601
452.000000, 0.035114
451.000000, 0.035563
450.000000, 0.036226
449.000000, 0.035735
448.000000, 0.035955
447.000000, 0.035988
446.000000, 0.035201
445.000000, 0.035600
444.000000, 0.036235
443.000000, 0.036959
442.000000, 0.037641
441.000000, 0.037784
440.000000, 0.038053
439.000000, 0.039293
438.000000, 0.040495
437.000000, 0.041543
436.000000, 0.042989
435.000000, 0.044264
434.000000, 0.044803
433.000000, 0.044937
432.000000, 0.046026
431.000000, 0.046289
430.000000, 0.046607
429.000000, 0.048174
428.000000, 0.049759
427.000000, 0.050790
426.000000, 0.050029
425.000000, 0.049096
424.000000, 0.049915
423.000000, 0.050368
422.000000, 0.050068
421.000000, 0.050638
420.000000, 0.051829
419.000000, 0.051950
418.000000, 0.050761
417.000000, 0.050617
416.000000, 0.050749
415.000000, 0.050472
414.000000, 0.050827
413.000000, 0.051692
412.000000, 0.050829
411.000000, 0.049683
410.000000, 0.050249
409.000000, 0.050395
408.000000, 0.050394
407.000000, 0.050978
406.000000, 0.051313
405.000000, 0.050502
404.000000, 0.050450
403.000000, 0.050893
402.000000, 0.050614
401.000000, 0.051085
400.000000, 0.051273
399.000000, 0.051662
398.000000, 0.051732
397.000000, 0.050897
396.000000, 0.050827
395.000000, 0.051212
394.000000, 0.050880
393.000000, 0.051223
392.000000, 0.050004
391.000000, 0.049736
390.000000, 0.050123
389.000000, 0.050297
388.000000, 0.050992
387.000000, 0.051615
386.000000, 0.051388
385.000000, 0.051558
384.000000, 0.050427
383.000000, 0.050876
382.000000, 0.051276
381.000000, 0.050690
380.000000, 0.051834
379.000000, 0.052081
378.000000, 0.051482
377.000000, 0.051572
376.000000, 0.051787
375.000000, 0.051916
374.000000, 0.052018
373.000000, 0.051708
372.000000, 0.052186
371.000000, 0.052515
370.000000, 0.052950
369.000000, 0.053762
368.000000, 0.053369
367.000000, 0.053709
366.000000, 0.054958
365.000000, 0.055404
364.000000, 0.054965
363.000000, 0.054363
362.000000, 0.054907
361.000000, 0.055528
360.000000, 0.055523
359.000000, 0.056803
358.000000, 0.057220
357.000000, 0.057634
356.000000, 0.057480
355.000000, 0.057776
354.000000, 0.057662
353.000000, 0.059370
352.000000, 0.059517
351.000000, 0.060675
350.000000, 0.061369
349.000000, 0.061146
348.000000, 0.063393
347.000000, 0.065223
346.000000, 0.064821
345.000000, 0.066418
344.000000, 0.068281
343.000000, 0.069830
342.000000, 0.070285
341.000000, 0.072551
340.000000, 0.073559
339.000000, 0.075446
338.000000, 0.076050
337.000000, 0.077726
336.000000, 0.080038
335.000000, 0.081064
334.000000, 0.082926
333.000000, 0.084719
332.000000, 0.087359
331.000000, 0.089200
330.000000, 0.092041
329.000000, 0.094646
328.000000, 0.096488
327.000000, 0.100853
326.000000, 0.102653
325.000000, 0.106421
324.000000, 0.110576
323.000000, 0.114965
322.000000, 0.118952
321.000000, 0.122464
320.000000, 0.124652
319.000000, 0.127498
318.000000, 0.129366
317.000000, 0.132560
316.000000, 0.133565
315.000000, 0.135344
314.000000, 0.137305
313.000000, 0.139037
312.000000, 0.140354
311.000000, 0.140549
310.000000, 0.142990
309.000000, 0.146378
308.000000, 0.147755
307.000000, 0.148734
306.000000, 0.152328
305.000000, 0.153482
304.000000, 0.156194
303.000000, 0.157985
302.000000, 0.158959
301.000000, 0.160830
300.000000, 0.161466
