nm, A
800.000000, 0.001731
799.000000, 0.001687
798.000000, 0.001095
797.000000, 0.001581
796.000000, 0.001570
795.000000, 0.001041
794.000000, 0.001698
793.000000, 0.001238
792.000000, 0.000450
791.000000, 0.001517
790.000000, 0.001321
789.000000, 0.001659
788.000000, 0.000711
787.000000, 0.000993
786.000000, 0.001761
785.000000, 0.001282
784.000000, 0.000882
783.000000, 0.001311
782.000000, 0.002263
781.000000, 0.001174
780.000000, 0.000412
779.000000, 0.000577
778.000000, 0.001017
777.000000, 0.001582
776.000000, 0.000526
775.000000, 0.000091
774.000000, 0.000936
773.000000, 0.000977
772.000000, 0.001710
771.000000, 0.000636
770.000000, 0.000739
769.000000, 0.000408
768.000000, 0.001508
767.000000, 0.001353
766.000000, 0.001206
765.000000, 0.001689
764.000000, 0.001539
763.000000, 0.000425
762.000000, 0.001891
761.000000, 0.001768
760.000000, 0.001108
759.000000, 0.002227
758.000000, 0.000895
757.000000, 0.001318
756.000000, 0.002436
755.000000, 0.001310
754.000000, 0.001836
753.000000, 0.001862
752.000000, 0.001716
751.000000, 0.001568
750.000000, 0.001268
749.000000, 0.000572
748.000000, 0.001064
747.000000, 0.001502
746.000000, 0.001068
745.000000, 0.000019
744.000000, 0.001285
743.000000, 0.002382
742.000000, 0.002993
741.000000, 0.001686
740.000000, 0.000850
739.000000, 0.001066
738.000000, 0.001845
737.000000, 0.000573
736.000000, 0.000754
735.000000, 0.000999
734.000000, 0.001499
733.000000, 0.002321
732.000000, 0.002419
731.000000, 0.001043
730.000000, 0.000840
729.000000, 0.001557
728.000000, 0.001542
727.000000, 0.002572
726.000000, 0.001692
725.000000, 0.000636
724.000000, 0.000874
723.000000, 0.000893
722.000000, 0.001475
721.000000, 0.002834
720.000000, 0.001802
719.000000, 0.000766
718.000000, 0.000572
717.000000, 0.000685
716.000000, 0.001553
715.000000, 0.002070
714.000000, 0.001964
713.000000, 0.002133
712.000000, 0.001791
711.000000, 0.000552
710.000000, 0.000842
709.000000, 0.001958
708.000000, 0.001205
707.000000, 0.001605
706.000000, 0.002531
705.000000, 0.001864
704.000000, 0.001896
703.000000, 0.001992
702.000000, 0.001204
701.000000, 0.001354
700.000000, 0.001217
699.000000, 0.000760
698.000000, 0.001487
697.000000, 0.001114
696.000000, 0.000488
695.000000, 0.001086
694.000000, 0.001531
693.000000, 0.001207
692.000000, 0.000941
691.000000, 0.001189
690.000000, 0.001757
689.000000, 0.001201
688.000000, 0.001318
687.000000, 0.001034
686.000000, 0.001006
685.000000, 0.001695
684.000000, 0.001523
683.000000, 0.001051
682.000000, 0.000947
681.000000, 0.000789
680.000000, 0.001394
679.000000, 0.001605
678.000000, 0.001005
677.000000, 0.001363
676.000000, 0.002001
675.000000, 0.001843
674.000000, 0.001294
673.000000, 0.001218
672.000000, 0.001699
671.000000, 0.001001
670.000000, 0.001132
669.000000, 0.001659
668.000000, 0.001164
667.000000, 0.000863
666.000000, 0.001787
665.000000, 0.002219
664.000000, 0.002696
663.000000, 0.003045
662.000000, 0.002454
661.000000, 0.002162
660.000000, 0.002121
659.000000, 0.001432
658.000000, 0.001392
657.000000, 0.002142
656.000000, 0.001825
655.000000, 0.001642
654.000000, 0.001493
653.000000, 0.001837
652.000000, 0.002875
651.000000, 0.001877
650.000000, 0.000884
649.000000, 0.001542
648.000000, 0.002476
647.000000, 0.001340
646.000000, 0.001747
645.000000, 0.001536
644.000000, 0.001636
643.000000, 0.001451
642.000000, 0.002083
641.000000, 0.001888
640.000000, 0.001303
639.000000, 0.002196
638.000000, 0.000968
637.000000, 0.000411
636.000000, 0.001325
635.000000, 0.001408
634.000000, 0.001562
633.000000, 0.000956
632.000000, 0.001177
631.000000, 0.002094
630.000000, 0.002310
629.000000, 0.001780
628.000000, 0.001498
627.000000, 0.001278
626.000000, 0.001411
625.000000, 0.001673
624.000000, 0.002376
623.000000, 0.002650
622.000000, 0.002054
621.000000, 0.001371
620.000000, 0.001384
619.000000, 0.002218
618.000000, 0.002205
617.000000, 0.001785
616.000000, 0.002279
615.000000, 0.001247
614.000000, 0.001669
613.000000, 0.002101
612.000000, 0.001950
611.000000, 0.001009
610.000000, 0.002432
609.000000, 0.002261
608.000000, 0.002738
607.000000, 0.002243
606.000000, 0.001832
605.000000, 0.002454
604.000000, 0.002222
603.000000, 0.002568
602.000000, 0.002600
601.000000, 0.001609
600.000000, 0.002643
599.000000, 0.002815
598.000000, 0.001762
597.000000, 0.002684
596.000000, 0.002182
595.000000, 0.002476
594.000000, 0.003629
593.000000, 0.002283
592.000000, 0.003203
591.000000, 0.002786
590.000000, 0.001432
589.000000, 0.001054
588.000000, 0.002581
587.000000, 0.002519
586.000000, 0.001628
585.000000, 0.002356
584.000000, 0.002382
583.000000, 0.002726
582.000000, 0.002739
581.000000, 0.003267
580.000000, 0.001787
579.000000, 0.001317
578.000000, 0.002618
577.000000, 0.002726
576.000000, 0.001520
575.000000, 0.002300
574.000000, 0.002781
573.000000, 0.003171
572.000000, 0.003032
571.000000, 0.003326
570.000000, 0.003374
569.000000, 0.004099
568.000000, 0.002884
567.000000, 0.001902
566.000000, 0.002831
565.000000, 0.002660
564.000000, 0.002670
563.000000, 0.002758
562.000000, 0.003099
561.000000, 0.002081
560.000000, 0.002826
559.000000, 0.004030
558.000000, 0.003548
557.000000, 0.002557
556.000000, 0.002817
555.000000, 0.002812
554.000000, 0.004116
553.000000, 0.003334
552.000000, 0.003736
551.000000, 0.004210
550.000000, 0.003952
549.000000, 0.003528
548.000000, 0.003405
547.000000, 0.003928
546.000000, 0.005711
545.000000, 0.003971
544.000000, 0.004295
543.000000, 0.003197
542.000000, 0.005846
541.000000, 0.005662
540.000000, 0.004845
539.000000, 0.004235
538.000000, 0.003942
537.000000, 0.004881
536.000000, 0.005363
535.000000, 0.004195
534.000000, 0.003642
533.000000, 0.003299
532.000000, 0.003725
531.000000, 0.005004
530.000000, 0.005097
529.000000, 0.005297
528.000000, 0.004544
527.000000, 0.005170
526.000000, 0.005513
525.000000, 0.006043
524.000000, 0.006052
523.000000, 0.007153
522.000000, 0.008679
521.000000, 0.009684
520.000000, 0.013099
519.000000, 0.016520
518.000000, 0.023926
517.000000, 0.034958
516.000000, 0.048069
515.000000, 0.061365
514.000000, 0.071116
513.000000, 0.074283
512.000000, 0.072878
511.000000, 0.067245
510.000000, 0.062698
509.000000, 0.056706
508.000000, 0.053080
507.000000, 0.047516
506.000000, 0.043935
505.000000, 0.042482
504.000000, 0.039588
503.000000, 0.037337
502.000000, 0.035705
501.000000, 0.034347
500.000000, 0.032752
499.000000, 0.033195
498.000000, 0.031704
497.000000, 0.031557
496.000000, 0.032574
495.000000, 0.032561
494.000000, 0.034171
493.000000, 0.035621
492.000000, 0.037659
491.000000, 0.037882
490.000000, 0.039599
489.000000, 0.042056
488.000000, 0.045387
487.000000, 0.048083
486.000000, 0.050304
485.000000, 0.052736
484.000000, 0.054626
483.000000, 0.055264
482.000000, 0.055700
481.000000, 0.057678
480.000000, 0.057342
479.000000, 0.054691
478.000000, 0.052265
477.000000, 0.050659
476.000000, 0.049924
475.000000, 0.046827
474.000000, 0.045257
473.000000, 0.043824
472.000000, 0.041947
471.000000, 0.040311
470.000000, 0.039890
469.000000, 0.038373
468.000000, 0.037905
467.000000, 0.036263
466.000000, 0.035038
465.000000, 0.034792
464.000000, 0.035863
463.000000, 0.035250
462.000000, 0.034291
461.000000, 0.033423
460.000000, 0.033079
459.000000, 0.032477
458.000000, 0.032372
457.000000, 0.031875
456.000000, 0.031725
455.000000, 0.031380
454.000000, 0.031311
453.000000, 0.031960
452.000000, 0.031869
451.000000, 0.032172
450.000000, 0.031719
449.000000, 0.031433
448.000000, 0.032272
447.000000, 0.031642
446.000000, 0.030757
445.000000, 0.031854
444.000000, 0.033468
443.000000, 0.033099
442.000000, 0.032558
441.000000, 0.033383
440.000000, 0.034425
439.000000, 0.036427
438.000000, 0.037657
437.000000, 0.037646
436.000000, 0.039350
435.000000, 0.040135
434.000000, 0.039845
433.000000, 0.041036
432.000000, 0.041595
431.000000, 0.041703
430.000000, 0.042699
429.000000, 0.043648
428.000000, 0.044344
427.000000, 0.044887
426.000000, 0.044839
425.000000, 0.044231
424.000000, 0.044059
423.000000, 0.045322
422.000000, 0.045857
421.000000, 0.045348
420.000000, 0.045235
419.000000, 0.045063
418.000000, 0.043813
417.000000, 0.043040
416.000000, 0.043384
415.000000, 0.044188
414.000000, 0.044679
413.000000, 0.043622
412.000000, 0.043898
411.000000, 0.044197
410.000000, 0.043431
409.000000, 0.043744
408.000000, 0.044333
407.000000, 0.043980
406.000000, 0.043834
405.000000, 0.044087
404.000000, 0.044098
403.000000, 0.043613
402.000000, 0.043642
401.000000, 0.044291
400.000000, 0.043525
399.000000, 0.044182
398.000000, 0.044612
397.000000, 0.044396
396.000000, 0.044474
395.000000, 0.043654
394.000000, 0.044367
393.000000, 0.043702
392.000000, 0.043810
391.000000, 0.044757
390.000000, 0.044159
389.000000, 0.043828
388.000000, 0.043572
387.000000, 0.044743
386.000000, 0.044411
385.000000, 0.044246
384.000000, 0.044692
383.000000, 0.044446
382.000000, 0.044296
381.000000, 0.045372
380.000000, 0.044886
379.000000, 0.045433
378.000000, 0.045342
377.000000, 0.045495
376.000000, 0.045084
375.000000, 0.045454
374.000000, 0.045584
373.000000, 0.047199
372.000000, 0.048219
371.000000, 0.047292
370.000000, 0.047177
369.000000, 0.046971
368.000000, 0.046206
367.000000, 0.046222
366.000000, 0.048149
365.000000, 0.048537
364.000000, 0.049024
363.000000, 0.050338
362.000000, 0.049100
361.000000, 0.048876
360.000000, 0.049136
359.000000, 0.049873
358.000000, 0.050921
357.000000, 0.051983
356.000000, 0.052585
355.000000, 0.053117
354.000000, 0.052966
353.000000, 0.053063
352.000000, 0.054253
351.000000, 0.055245
350.000000, 0.054020
349.000000, 0.055935
348.000000, 0.056709
347.000000, 0.058382
346.000000, 0.059153
345.000000, 0.059843
344.000000, 0.061589
343.000000, 0.061651
342.000000, 0.063082
341.000000, 0.064500
340.000000, 0.065117
339.000000, 0.066940
338.000000, 0.067993
337.000000, 0.070049
336.000000, 0.071489
335.000000, 0.073217
334.000000, 0.074499
333.000000, 0.076234
332.000000, 0.077936
331.000000, 0.079448
330.000000, 0.081705
329.000000, 0.083993
328.000000, 0.087676
327.000000, 0.090344
326.000000, 0.092648
325.000000, 0.095263
324.000000, 0.100109
323.000000, 0.102553
322.000000, 0.105544
321.000000, 0.109882
320.000000, 0.113517
319.000000, 0.113967
318.000000, 0.117191
317.000000, 0.117084
316.000000, 0.117804
315.000000, 0.120571
314.000000, 0.122214
313.000000, 0.122354
312.000000, 0.124196
311.000000, 0.126124
310.000000, 0.127795
309.000000, 0.130801
308.000000, 0.131162
307.000000, 0.133105
306.000000, 0.135016
305.000000, 0.136424
304.000000, 0.138380
303.000000, 0.140726
302.000000, 0.141403
301.000000, 0.141972
300.000000, 0.143808
