nm, A
800.000000, 0.001463
799.000000, -0.000770
798.000000, 0.000298
797.000000, -0.001001
796.000000, -0.001682
795.000000, -0.001295
794.000000, 0.000437
793.000000, -0.000882
792.000000, -0.000759
791.000000, -0.000127
790.000000, -0.000491
789.000000, -0.000537
788.000000, -0.000268
787.000000, -0.000721
786.000000, -0.001353
785.000000, -0.000607
784.000000, -0.000690
783.000000, 0.000193
782.000000, 0.000599
781.000000, -0.001231
780.000000, -0.001692
779.000000, -0.002379
778.000000, -0.001663
777.000000, -0.000136
776.000000, 0.000518
775.000000, 0.000121
774.000000, -0.000712
773.000000, -0.000760
772.000000, 0.000434
771.000000, -0.000237
770.000000, -0.000980
769.000000, -0.000683
768.000000, -0.000732
767.000000, -0.000717
766.000000, -0.001433
765.000000, -0.000173
764.000000, 0.000263
763.000000, -0.000232
762.000000, 0.000045
761.000000, 0.000148
760.000000, -0.000485
759.000000, -0.000185
758.000000, -0.000964
757.000000, -0.000071
756.000000, 0.000873
755.000000, 0.000127
754.000000, 0.000410
753.000000, 0.000416
752.000000, -0.000730
751.000000, -0.000064
750.000000, 0.000827
749.000000, 0.000038
748.000000, 0.001136
747.000000, -0.000199
746.000000, -0.000680
745.000000, -0.001045
744.000000, 0.000175
743.000000, 0.001490
742.000000, 0.001152
741.000000, 0.000109
740.000000, -0.000712
739.000000, -0.000543
738.000000, 0.000565
737.000000, -0.000409
736.000000, 0.000014
735.000000, 0.000129
734.000000, 0.000484
733.000000, 0.000252
732.000000, 0.000972
731.000000, -0.000323
730.000000, 0.000532
729.000000, -0.000195
728.000000, -0.000436
727.000000, 0.000443
726.000000, 0.000476
725.000000, -0.000143
724.000000, -0.001094
723.000000, -0.001025
722.000000, -0.000861
721.000000, 0.001751
720.000000, 0.000699
719.000000, -0.000074
718.000000, -0.000211
717.000000, -0.001901
716.000000, -0.000677
715.000000, 0.000223
714.000000, -0.000145
713.000000, 0.000472
712.000000, 0.000005
711.000000, -0.000902
710.000000, -0.000450
709.000000, 0.000195
708.000000, -0.000783
707.000000, -0.001280
706.000000, 0.000340
705.000000, 0.000650
704.000000, 0.000250
703.000000, -0.000413
702.000000, -0.000360
701.000000, -0.000075
700.000000, 0.000280
699.000000, -0.000574
698.000000, 0.000203
697.000000, 0.000250
696.000000, -0.000474
695.000000, -0.000719
694.000000, -0.000378
693.000000, -0.000074
692.000000, -0.000497
691.000000, 0.000269
690.000000, 0.000478
689.000000, -0.000991
688.000000, 0.000039
687.000000, 0.000266
686.000000, -0.000704
685.000000, -0.000789
684.000000, -0.000938
683.000000, 0.000228
682.000000, 0.000615
681.000000, 0.000001
680.000000, -0.000236
679.000000, 0.000417
678.000000, 0.000555
677.000000, 0.000339
676.000000, 0.000755
675.000000, 0.000409
674.000000, -0.000804
673.000000, -0.000771
672.000000, -0.000016
671.000000, 0.000030
670.000000, 0.000253
669.000000, 0.000918
668.000000, 0.000881
667.000000, 0.000822
666.000000, 0.001261
665.000000, 0.000749
664.000000, 0.000624
663.000000, 0.000653
662.000000, 0.000879
661.000000, 0.000976
660.000000, 0.001093
659.000000, 0.000666
658.000000, 0.000428
657.000000, 0.001171
656.000000, 0.001241
655.000000, 0.000619
654.000000, -0.000231
653.000000, -0.000121
652.000000, 0.001632
651.000000, 0.001451
650.000000, 0.000431
649.000000, 0.000024
648.000000, 0.001104
647.000000, 0.000892
646.000000, 0.000319
645.000000, 0.000517
644.000000, 0.000143
643.000000, 0.000315
642.000000, 0.001339
641.000000, 0.000963
640.000000, 0.000622
639.000000, 0.000865
638.000000, 0.000185
637.000000, 0.000162
636.000000, -0.000092
635.000000, 0.000507
634.000000, 0.000528
633.000000, 0.000327
632.000000, 0.000912
631.000000, 0.000352
630.000000, -0.000223
629.000000, 0.001107
628.000000, 0.000749
627.000000, -0.000031
626.000000, 0.000487
625.000000, 0.001783
624.000000, 0.001589
623.000000, 0.001149
622.000000, 0.001551
621.000000, 0.000902
620.000000, 0.000613
619.000000, 0.001322
618.000000, 0.000460
617.000000, 0.000781
616.000000, 0.001504
615.000000, 0.000428
614.000000, 0.000939
613.000000, 0.000828
612.000000, 0.000958
611.000000, 0.000552
610.000000, 0.000882
609.000000, 0.000568
608.000000, 0.001453
607.000000, 0.001174
606.000000, 0.001660
605.000000, 0.002164
604.000000, 0.001637
603.000000, 0.000636
602.000000, 0.001454
601.000000, 0.001192
600.000000, 0.001826
599.000000, 0.001386
598.000000, 0.000860
597.000000, 0.000605
596.000000, 0.001569
595.000000, 0.001247
594.000000, 0.002106
593.000000, 0.000944
592.000000, 0.003005
591.000000, 0.002388
590.000000, 0.001431
589.000000, 0.000597
588.000000, 0.002106
587.000000, 0.002019
586.000000, 0.001012
585.000000, 0.001753
584.000000, 0.002475
583.000000, 0.002448
582.000000, 0.002075
581.000000, 0.002755
580.000000, 0.001814
579.000000, 0.001396
578.000000, 0.002576
577.000000, 0.002291
576.000000, 0.001783
575.000000, 0.001115
574.000000, 0.002079
573.000000, 0.003016
572.000000, 0.002683
571.000000, 0.002426
570.000000, 0.002013
569.000000, 0.003439
568.000000, 0.001761
567.000000, 0.002622
566.000000, 0.002898
565.000000, 0.003791
564.000000, 0.002817
563.000000, 0.002896
562.000000, 0.002728
561.000000, 0.002133
560.000000, 0.002016
559.000000, 0.002653
558.000000, 0.003234
557.000000, 0.002896
556.000000, 0.003100
555.000000, 0.002745
554.000000, 0.004691
553.000000, 0.002616
552.000000, 0.003069
551.000000, 0.004252
550.000000, 0.004006
549.000000, 0.004526
548.000000, 0.004751
547.000000, 0.005414
546.000000, 0.006618
545.000000, 0.005626
544.000000, 0.006145
543.000000, 0.005309
542.000000, 0.006944
541.000000, 0.006137
540.000000, 0.005985
539.000000, 0.005737
538.000000, 0.004991
537.000000, 0.006063
536.000000, 0.007250
535.000000, 0.005420
534.000000, 0.005235
533.000000, 0.005755
532.000000, 0.005036
531.000000, 0.006011
530.000000, 0.007264
529.000000, 0.006266
528.000000, 0.006429
527.000000, 0.008378
526.000000, 0.007598
525.000000, 0.009099
524.000000, 0.009980
523.000000, 0.011224
522.000000, 0.015276
521.000000, 0.017575
520.000000, 0.023705
519.000000, 0.033936
518.000000, 0.052107
517.000000, 0.078725
516.000000, 0.116710
515.000000, 0.159700
514.000000, 0.196142
513.000000, 0.212804
512.000000, 0.212038
511.000000, 0.196996
510.000000, 0.180534
509.000000, 0.163499
508.000000, 0.148836
507.000000, 0.134675
506.000000, 0.123744
505.000000, 0.116072
504.000000, 0.107509
503.000000, 0.101666
502.000000, 0.097145
501.000000, 0.091671
500.000000, 0.087922
499.000000, 0.086347
498.000000, 0.084575
497.000000, 0.083476
496.000000, 0.084062
495.000000, 0.084682
494.000000, 0.087233
493.000000, 0.090991
492.000000, 0.094477
491.000000, 0.098618
490.000000, 0.103963
489.000000, 0.111022
488.000000, 0.119111
487.000000, 0.128064
486.000000, 0.136366
485.000000, 0.144318
484.000000, 0.148971
483.000000, 0.153608
482.000000, 0.157426
481.000000, 0.158596
480.000000, 0.156871
479.000000, 0.152348
478.000000, 0.147407
477.000000, 0.141946
476.000000, 0.136826
475.000000, 0.130895
474.000000, 0.126053
473.000000, 0.121126
472.000000, 0.115794
471.000000, 0.110657
470.000000, 0.107695
469.000000, 0.104203
468.000000, 0.101350
467.000000, 0.098423
466.000000, 0.095665
465.000000, 0.092490
464.000000, 0.092586
463.000000, 0.091429
462.000000, 0.089385
461.000000, 0.088384
460.000000, 0.087330
459.000000, 0.085538
458.000000, 0.084734
457.000000, 0.083715
456.000000, 0.084223
455.000000, 0.083794
454.000000, 0.081801
453.000000, 0.081973
452.000000, 0.082457
451.000000, 0.083024
450.000000, 0.082239
449.000000, 0.082732
448.000000, 0.083673
447.000000, 0.083608
446.000000, 0.084125
445.000000, 0.084720
444.000000, 0.085755
443.000000, 0.085239
442.000000, 0.086918
441.000000, 0.088718
440.000000, 0.090113
439.000000, 0.093203
438.000000, 0.096306
437.000000, 0.099079
436.000000, 0.101923
435.000000, 0.104069
434.000000, 0.106171
433.000000, 0.109561
432.000000, 0.111562
431.000000, 0.113278
430.000000, 0.115198
429.000000, 0.116329
428.000000, 0.116634
427.000000, 0.117360
426.000000, 0.118731
425.000000, 0.119836
424.000000, 0.120277
423.000000, 0.120473
422.000000, 0.120059
421.000000, 0.119400
420.000000, 0.119345
419.000000, 0.118630
418.000000, 0.118218
417.000000, 0.118014
416.000000, 0.118070
415.000000, 0.118239
414.000000, 0.118645
413.000000, 0.117918
412.000000, 0.117464
411.000000, 0.117725
410.000000, 0.117565
409.000000, 0.117713
408.000000, 0.118247
407.000000, 0.117244
406.000000, 0.115806
405.000000, 0.117056
404.000000, 0.117233
403.000000, 0.117351
402.000000, 0.117074
401.000000, 0.116819
400.000000, 0.116085
399.000000, 0.116297
398.000000, 0.117450
397.000000, 0.116594
396.000000, 0.117038
395.000000, 0.116695
394.000000, 0.116259
393.000000, 0.115595
392.000000, 0.115854
391.000000, 0.117102
390.000000, 0.116694
389.000000, 0.116696
388.000000, 0.116414
387.000000, 0.116875
386.000000, 0.117321
385.000000, 0.118317
384.000000, 0.118452
383.000000, 0.118826
382.000000, 0.119700
381.000000, 0.119981
380.000000, 0.120146
379.000000, 0.120957
378.000000, 0.120255
377.000000, 0.120394
376.000000, 0.120631
375.000000, 0.120834
374.000000, 0.121487
373.000000, 0.123175
372.000000, 0.123557
371.000000, 0.123833
370.000000, 0.122767
369.000000, 0.124448
368.000000, 0.124950
367.000000, 0.125128
366.000000, 0.126585
365.000000, 0.127580
364.000000, 0.128410
363.000000, 0.128465
362.000000, 0.128928
361.000000, 0.128598
360.000000, 0.129637
359.000000, 0.131228
358.000000, 0.132797
357.000000, 0.133361
356.000000, 0.133969
355.000000, 0.134816
354.000000, 0.136967
353.000000, 0.137684
352.000000, 0.139939
351.000000, 0.142131
350.000000, 0.142902
349.000000, 0.145435
348.000000, 0.147546
347.000000, 0.151497
346.000000, 0.154567
345.000000, 0.157991
344.000000, 0.160760
343.000000, 0.164120
342.000000, 0.165991
341.000000, 0.169917
340.000000, 0.172888
339.000000, 0.176390
338.000000, 0.179810
337.000000, 0.184711
336.000000, 0.187677
335.000000, 0.191537
334.000000, 0.196663
333.000000, 0.201765
332.000000, 0.206232
331.000000, 0.212233
330.000000, 0.218246
329.000000, 0.225327
328.000000, 0.232741
327.000000, 0.240529
326.000000, 0.249362
325.000000, 0.259962
324.000000, 0.269680
323.000000, 0.279112
322.000000, 0.288279
321.000000, 0.297324
320.000000, 0.305335
319.000000, 0.311373
318.000000, 0.316474
317.000000, 0.319730
316.000000, 0.323272
315.000000, 0.328167
314.000000, 0.331751
313.000000, 0.335234
312.000000, 0.339819
311.000000, 0.343529
310.000000, 0.347561
309.000000, 0.353669
308.000000, 0.358357
307.000000, 0.363257
306.000000, 0.367499
305.000000, 0.373517
304.000000, 0.378616
303.000000, 0.382431
302.000000, 0.385193
301.000000, 0.390020
300.000000, 0.391890
