nm, A
800.000000, 0.001065
799.000000, 0.000869
798.000000, 0.000267
797.000000, 0.000653
796.000000, 0.000841
795.000000, 0.000872
794.000000, 0.000520
793.000000, -0.000455
792.000000, 0.001161
791.000000, 0.001049
790.000000, 0.001477
789.000000, 0.001438
788.000000, 0.001520
787.000000, 0.001818
786.000000, 0.000153
785.000000, -0.000774
784.000000, 0.000508
783.000000, 0.000652
782.000000, 0.000212
781.000000, 0.000939
780.000000, 0.000928
779.000000, 0.000912
778.000000, 0.000707
777.000000, -0.000194
776.000000, 0.000292
775.000000, 0.000611
774.000000, 0.001581
773.000000, 0.000190
772.000000, -0.000137
771.000000, 0.000205
770.000000, 0.000826
769.000000, 0.001582
768.000000, 0.002025
767.000000, -0.001197
766.000000, -0.000461
765.000000, -0.000482
764.000000, 0.001374
763.000000, 0.000756
762.000000, 0.001631
761.000000, -0.000003
760.000000, 0.000026
759.000000, 0.000181
758.000000, 0.000202
757.000000, 0.000309
756.000000, 0.001669
755.000000, 0.000251
754.000000, -0.000599
753.000000, 0.000100
752.000000, 0.000067
751.000000, 0.000839
750.000000, 0.001080
749.000000, 0.000723
748.000000, -0.000406
747.000000, 0.000076
746.000000, -0.000510
745.000000, -0.000436
744.000000, 0.000355
743.000000, 0.001819
742.000000, 0.001737
741.000000, 0.001010
740.000000, 0.000277
739.000000, 0.000849
738.000000, 0.000537
737.000000, 0.000094
736.000000, 0.000142
735.000000, 0.000131
734.000000, 0.000294
733.000000, 0.001107
732.000000, 0.000377
731.000000, 0.000652
730.000000, 0.000801
729.000000, -0.000751
728.000000, -0.000179
727.000000, 0.000655
726.000000, 0.001677
725.000000, 0.000713
724.000000, 0.000765
723.000000, -0.000524
722.000000, 0.000626
721.000000, 0.000414
720.000000, 0.000845
719.000000, 0.000376
718.000000, 0.000198
717.000000, 0.000131
716.000000, -0.000493
715.000000, 0.000200
714.000000, 0.000481
713.000000, 0.001236
712.000000, 0.001342
711.000000, 0.000680
710.000000, 0.000528
709.000000, -0.000178
708.000000, -0.000265
707.000000, 0.000530
706.000000, 0.000701
705.000000, 0.001267
704.000000, 0.000916
703.000000, 0.000019
702.000000, 0.000219
701.000000, 0.000523
700.000000, 0.000262
699.000000, 0.000639
698.000000, 0.001266
697.000000, 0.001155
696.000000, -0.000217
695.000000, -0.000327
694.000000, 0.001050
693.000000, 0.000520
692.000000, -0.000177
691.000000, 0.000130
690.000000, 0.000988
689.000000, 0.000951
688.000000, 0.000467
687.000000, 0.001119
686.000000, 0.001284
685.000000, 0.000970
684.000000, 0.001317
683.000000, 0.001827
682.000000, 0.001209
681.000000, 0.000416
680.000000, 0.000521
679.000000, 0.000672
678.000000, 0.001153
677.000000, 0.002123
676.000000, 0.001735
675.000000, 0.000496
674.000000, 0.000815
673.000000, 0.001082
672.000000, 0.001196
671.000000, 0.001706
670.000000, 0.001402
669.000000, 0.000916
668.000000, 0.000270
667.000000, 0.000828
666.000000, 0.001018
665.000000, 0.000331
664.000000, 0.000207
663.000000, 0.000865
662.000000, 0.001075
661.000000, -0.000297
660.000000, -0.000007
659.000000, 0.001053
658.000000, 0.001289
657.000000, 0.001648
656.000000, 0.002410
655.000000, 0.001353
654.000000, 0.001351
653.000000, 0.000787
652.000000, 0.000609
651.000000, 0.000802
650.000000, 0.000772
649.000000, 0.001484
648.000000, 0.000956
647.000000, 0.000391
646.000000, 0.000827
645.000000, 0.001094
644.000000, 0.001666
643.000000, 0.001775
642.000000, 0.001200
641.000000, 0.000983
640.000000, 0.001927
639.000000, 0.001394
638.000000, 0.000166
637.000000, 0.000820
636.000000, 0.002123
635.000000, 0.002220
634.000000, 0.002015
633.000000, 0.001758
632.000000, 0.002002
631.000000, 0.001011
630.000000, 0.001441
629.000000, -0.000281
628.000000, 0.001624
627.000000, 0.002748
626.000000, 0.002345
625.000000, 0.002382
624.000000, 0.001760
623.000000, 0.001155
622.000000, 0.001395
621.000000, 0.001359
620.000000, 0.000702
619.000000, 0.000809
618.000000, 0.000717
617.000000, 0.001367
616.000000, 0.001994
615.000000, 0.001182
614.000000, 0.001102
613.000000, 0.000879
612.000000, 0.000471
611.000000, 0.001988
610.000000, 0.002002
609.000000, 0.001402
608.000000, 0.001721
607.000000, 0.001413
606.000000, 0.002601
605.000000, 0.001778
604.000000, 0.002270
603.000000, 0.001428
602.000000, 0.001988
601.000000, 0.002638
600.000000, 0.002628
599.000000, 0.001258
598.000000, 0.003212
597.000000, 0.002258
596.000000, 0.001725
595.000000, 0.001964
594.000000, 0.002041
593.000000, 0.002112
592.000000, 0.002700
591.000000, 0.002591
590.000000, 0.002096
589.000000, 0.001914
588.000000, 0.003123
587.000000, 0.002863
586.000000, 0.003209
585.000000, 0.002395
584.000000, 0.001876
583.000000, 0.001917
582.000000, 0.002694
581.000000, 0.001611
580.000000, 0.002026
579.000000, 0.002335
578.000000, 0.002361
577.000000, 0.002467
576.000000, 0.002906
575.000000, 0.001516
574.000000, 0.003291
573.000000, 0.003258
572.000000, 0.003398
571.000000, 0.002420
570.000000, 0.003296
569.000000, 0.004692
568.000000, 0.003035
567.000000, 0.003116
566.000000, 0.003259
565.000000, 0.003360
564.000000, 0.001666
563.000000, 0.003842
562.000000, 0.002581
561.000000, 0.002312
560.000000, 0.001519
559.000000, 0.003604
558.000000, 0.002724
557.000000, 0.003372
556.000000, 0.002715
555.000000, 0.004192
554.000000, 0.003695
553.000000, 0.003077
552.000000, 0.003161
551.000000, 0.004271
550.000000, 0.004462
549.000000, 0.003456
548.000000, 0.002971
547.000000, 0.004488
546.000000, 0.003918
545.000000, 0.003993
544.000000, 0.005952
543.000000, 0.004778
542.000000, 0.005600
541.000000, 0.004620
540.000000, 0.005126
539.000000, 0.004555
538.000000, 0.005765
537.000000, 0.003347
536.000000, 0.005030
535.000000, 0.004381
534.000000, 0.005117
533.000000, 0.005845
532.000000, 0.004939
531.000000, 0.005360
530.000000, 0.005406
529.000000, 0.005573
528.000000, 0.006169
527.000000, 0.006247
526.000000, 0.006081
525.000000, 0.006052
524.000000, 0.007741
523.000000, 0.008117
522.000000, 0.009980
521.000000, 0.012667
520.000000, 0.015667
519.000000, 0.020912
518.000000, 0.030660
517.000000, 0.046019
516.000000, 0.065887
515.000000, 0.088878
514.000000, 0.109332
513.000000, 0.119140
512.000000, 0.120134
511.000000, 0.112976
510.000000, 0.104363
509.000000, 0.096715
508.000000, 0.089511
507.000000, 0.082492
506.000000, 0.075815
505.000000, 0.070207
504.000000, 0.066796
503.000000, 0.062150
502.000000, 0.058787
501.000000, 0.056061
500.000000, 0.053912
499.000000, 0.052456
498.000000, 0.051973
497.000000, 0.051638
496.000000, 0.051655
495.000000, 0.052592
494.000000, 0.053845
493.000000, 0.054205
492.000000, 0.056228
491.000000, 0.058888
490.000000, 0.063609
489.000000, 0.067117
488.000000, 0.071549
487.000000, 0.076530
486.000000, 0.082408
485.000000, 0.087518
484.000000, 0.090745
483.000000, 0.093996
482.000000, 0.095231
481.000000, 0.096418
480.000000, 0.096217
479.000000, 0.094417
478.000000, 0.092607
477.000000, 0.090222
476.000000, 0.086274
475.000000, 0.082868
474.000000, 0.078888
473.000000, 0.075468
472.000000, 0.073108
471.000000, 0.070212
470.000000, 0.068624
469.000000, 0.066855
468.000000, 0.064821
467.000000, 0.063437
466.000000, 0.062008
465.000000, 0.059921
464.000000, 0.059096
463.000000, 0.057702
462.000000, 0.056685
461.000000, 0.055676
460.000000, 0.055024
459.000000, 0.055007
458.000000, 0.054615
457.000000, 0.054495
456.000000, 0.054514
455.000000, 0.053304
454.000000, 0.052853
453.000000, 0.053469
452.000000, 0.054425
451.000000, 0.053898
450.000000, 0.053355
449.000000, 0.053265
448.000000, 0.053673
447.000000, 0.054563
446.000000, 0.054780
445.000000, 0.055634
444.000000, 0.056340
443.000000, 0.055943
442.000000, 0.056478
441.000000, 0.057978
440.000000, 0.059193
439.000000, 0.060616
438.000000, 0.062599
437.000000, 0.063827
436.000000, 0.065298
435.000000, 0.067048
434.000000, 0.069563
433.000000, 0.071407
432.000000, 0.073009
431.000000, 0.074323
430.000000, 0.075950
429.000000, 0.076814
428.000000, 0.076597
427.000000, 0.077749
426.000000, 0.078557
425.000000, 0.078989
424.000000, 0.079504
423.000000, 0.078775
422.000000, 0.077719
421.000000, 0.077859
420.000000, 0.078576
419.000000, 0.077237
418.000000, 0.077324
417.000000, 0.079100
416.000000, 0.079152
415.000000, 0.077839
414.000000, 0.076626
413.000000, 0.077237
412.000000, 0.077901
411.000000, 0.077987
410.000000, 0.077974
409.000000, 0.077608
408.000000, 0.076705
407.000000, 0.076222
406.000000, 0.076536
405.000000, 0.077353
404.000000, 0.076858
403.000000, 0.076789
402.000000, 0.077635
401.000000, 0.077167
400.000000, 0.077251
399.000000, 0.076964
398.000000, 0.077006
397.000000, 0.076428
396.000000, 0.076207
395.000000, 0.076136
394.000000, 0.076177
393.000000, 0.076724
392.000000, 0.077268
391.000000, 0.076618
390.000000, 0.077410
389.000000, 0.077824
388.000000, 0.077603
387.000000, 0.077459
386.000000, 0.077265
385.000000, 0.077394
384.000000, 0.077628
383.000000, 0.078070
382.000000, 0.078457
381.000000, 0.078920
380.000000, 0.079508
379.000000, 0.079657
378.000000, 0.079370
377.000000, 0.080195
376.000000, 0.080304
375.000000, 0.080446
374.000000, 0.081383
373.000000, 0.082392
372.000000, 0.081873
371.000000, 0.082045
370.000000, 0.081987
369.000000, 0.082717
368.000000, 0.083613
367.000000, 0.083086
366.000000, 0.083984
365.000000, 0.084781
364.000000, 0.085318
363.000000, 0.084868
362.000000, 0.086130
361.000000, 0.086408
360.000000, 0.086897
359.000000, 0.087228
358.000000, 0.087953
357.000000, 0.089559
356.000000, 0.088761
355.000000, 0.089875
354.000000, 0.090411
353.000000, 0.092034
352.000000, 0.093102
351.000000, 0.094084
350.000000, 0.094429
349.000000, 0.096311
348.000000, 0.097843
347.000000, 0.099990
346.000000, 0.100973
345.000000, 0.104260
344.000000, 0.105389
343.000000, 0.106340
342.000000, 0.108997
341.000000, 0.110603
340.000000, 0.112740
339.000000, 0.114282
338.000000, 0.117210
337.000000, 0.119815
336.000000, 0.122150
335.000000, 0.124501
334.000000, 0.125538
333.000000, 0.130194
332.000000, 0.133137
331.000000, 0.136756
330.000000, 0.140387
329.000000, 0.143751
328.000000, 0.148479
327.000000, 0.152535
326.000000, 0.158543
325.000000, 0.163398
324.000000, 0.170584
323.000000, 0.176773
322.000000, 0.181456
321.000000, 0.187412
320.000000, 0.191589
319.000000, 0.196790
318.000000, 0.199510
317.000000, 0.202988
316.000000, 0.205102
315.000000, 0.208014
314.000000, 0.209258
313.000000, 0.211958
312.000000, 0.214085
311.000000, 0.217658
310.000000, 0.221266
309.000000, 0.223352
308.000000, 0.226645
307.000000, 0.230894
306.000000, 0.233377
305.000000, 0.237866
304.000000, 0.240813
303.000000, 0.244749
302.000000, 0.246586
301.000000, 0.247423
300.000000, 0.251761
