nm, A
800.000000, 0.001759
799.000000, 0.000912
798.000000, -0.000057
797.000000, 0.000269
796.000000, 0.001075
795.000000, 0.000057
794.000000, 0.000773
793.000000, 0.000822
792.000000, 0.000886
791.000000, 0.001640
790.000000, 0.000313
789.000000, -0.000276
788.000000, 0.000524
787.000000, 0.000913
786.000000, -0.000021
785.000000, 0.000705
784.000000, -0.000199
783.000000, 0.000741
782.000000, -0.000581
781.000000, 0.001740
780.000000, -0.000155
779.000000, -0.000655
778.000000, 0.000713
777.000000, 0.001099
776.000000, 0.001372
775.000000, -0.000220
774.000000, -0.000669
773.000000, 0.001031
772.000000, 0.000814
771.000000, -0.000022
770.000000, 0.000422
769.000000, 0.000406
768.000000, 0.000553
767.000000, 0.001017
766.000000, 0.001490
765.000000, 0.000349
764.000000, 0.000816
763.000000, 0.001018
762.000000, 0.000518
761.000000, 0.000310
760.000000, 0.001382
759.000000, 0.001178
758.000000, 0.000464
757.000000, -0.000026
756.000000, -0.000454
755.000000, 0.000391
754.000000, -0.000753
753.000000, -0.000086
752.000000, 0.000085
751.000000, 0.001266
750.000000, 0.000408
749.000000, 0.001477
748.000000, 0.001713
747.000000, 0.000429
746.000000, 0.001314
745.000000, 0.000476
744.000000, 0.000328
743.000000, 0.000075
742.000000, -0.000544
741.000000, -0.000233
740.000000, 0.000351
739.000000, 0.000139
738.000000, 0.000932
737.000000, 0.000090
736.000000, 0.001066
735.000000, 0.000921
734.000000, 0.000325
733.000000, 0.000076
732.000000, 0.001097
731.000000, 0.001458
730.000000, 0.001124
729.000000, 0.000704
728.000000, -0.000014
727.000000, 0.000095
726.000000, 0.000466
725.000000, 0.000643
724.000000, 0.001151
723.000000, 0.001298
722.000000, 0.001436
721.000000, 0.000982
720.000000, 0.000376
719.000000, 0.000550
718.000000, 0.001076
717.000000, 0.000785
716.000000, 0.001313
715.000000, 0.000863
714.000000, 0.000528
713.000000, 0.000460
712.000000, 0.001411
711.000000, 0.000882
710.000000, -0.000420
709.000000, 0.000359
708.000000, 0.001489
707.000000, 0.001636
706.000000, 0.000787
705.000000, 0.000798
704.000000, 0.000497
703.000000, -0.000391
702.000000, -0.000008
701.000000, 0.000222
700.000000, 0.000262
699.000000, 0.000105
698.000000, 0.000809
697.000000, 0.001321
696.000000, 0.001353
695.000000, 0.001421
694.000000, 0.001487
693.000000, 0.000527
692.000000, 0.001014
691.000000, 0.001586
690.000000, 0.000614
689.000000, 0.000832
688.000000, 0.001211
687.000000, 0.000976
686.000000, 0.000656
685.000000, 0.000367
684.000000, 0.000432
683.000000, 0.000451
682.000000, 0.000541
681.000000, 0.000364
680.000000, 0.000166
679.000000, 0.000199
678.000000, 0.001010
677.000000, 0.000991
676.000000, 0.000336
675.000000, 0.000550
674.000000, 0.001195
673.000000, 0.001289
672.000000, 0.000843
671.000000, 0.001105
670.000000, 0.001463
669.000000, 0.000835
668.000000, 0.000731
667.000000, 0.001399
666.000000, 0.001513
665.000000, 0.001822
664.000000, 0.001932
663.000000, 0.001122
662.000000, 0.000022
661.000000, 0.000482
660.000000, 0.002118
659.000000, 0.002476
658.000000, 0.001399
657.000000, 0.001199
656.000000, 0.000920
655.000000, 0.000773
654.000000, 0.000863
653.000000, 0.001830
652.000000, 0.001608
651.000000, 0.000298
650.000000, 0.001606
649.000000, 0.001486
648.000000, 0.001232
647.000000, 0.001360
646.000000, 0.001387
645.000000, 0.001321
644.000000, 0.001084
643.000000, 0.001824
642.000000, 0.001580
641.000000, 0.001005
640.000000, 0.001218
639.000000, 0.001683
638.000000, 0.001943
637.000000, 0.001833
636.000000, 0.001367
635.000000, 0.000750
634.000000, 0.000461
633.000000, 0.001447
632.000000, 0.002252
631.000000, 0.002183
630.000000, 0.001143
629.000000, 0.001214
628.000000, 0.001787
627.000000, 0.002407
626.000000, 0.002094
625.000000, 0.001782
624.000000, 0.001758
623.000000, 0.002110
622.000000, 0.002180
621.000000, 0.001997
620.000000, 0.002107
619.000000, 0.002378
618.000000, 0.001104
617.000000, 0.001173
616.000000, 0.001936
615.000000, 0.001745
614.000000, 0.001688
613.000000, 0.001893
612.000000, 0.002187
611.000000, 0.002352
610.000000, 0.001439
609.000000, 0.001184
608.000000, 0.001964
607.000000, 0.001980
606.000000, 0.001796
605.000000, 0.001530
604.000000, 0.002037
603.000000, 0.001215
602.000000, 0.001918
601.000000, 0.002145
600.000000, 0.002171
599.000000, 0.003037
598.000000, 0.002656
597.000000, 0.002933
596.000000, 0.002375
595.000000, 0.002018
594.000000, 0.002018
593.000000, 0.002294
592.000000, 0.001722
591.000000, 0.002473
590.000000, 0.003506
589.000000, 0.003145
588.000000, 0.001499
587.000000, 0.001947
586.000000, 0.002229
585.000000, 0.001743
584.000000, 0.002644
583.000000, 0.002752
582.000000, 0.003001
581.000000, 0.003177
580.000000, 0.003686
579.000000, 0.003932
578.000000, 0.003851
577.000000, 0.003701
576.000000, 0.003387
575.000000, 0.003153
574.000000, 0.003980
573.000000, 0.002134
572.000000, 0.003779
571.000000, 0.002658
570.000000, 0.003723
569.000000, 0.003764
568.000000, 0.002309
567.000000, 0.003220
566.000000, 0.002684
565.000000, 0.003916
564.000000, 0.003102
563.000000, 0.003832
562.000000, 0.003871
561.000000, 0.003417
560.000000, 0.004614
559.000000, 0.003530
558.000000, 0.004094
557.000000, 0.003855
556.000000, 0.004890
555.000000, 0.004902
554.000000, 0.004718
553.000000, 0.005691
552.000000, 0.004331
551.000000, 0.005057
550.000000, 0.005862
549.000000, 0.005791
548.000000, 0.006375
547.000000, 0.005943
546.000000, 0.007433
545.000000, 0.005921
544.000000, 0.006855
543.000000, 0.006405
542.000000, 0.007800
541.000000, 0.007781
540.000000, 0.007221
539.000000, 0.007180
538.000000, 0.007192
537.000000, 0.006917
536.000000, 0.008642
535.000000, 0.007892
534.000000, 0.007805
533.000000, 0.008080
532.000000, 0.008393
531.000000, 0.007634
530.000000, 0.008722
529.000000, 0.009241
528.000000, 0.009337
527.000000, 0.009452
526.000000, 0.010096
525.000000, 0.011352
524.000000, 0.013005
523.000000, 0.014996
522.000000, 0.018601
521.000000, 0.023164
520.000000, 0.032433
519.000000, 0.046790
518.000000, 0.068867
517.000000, 0.102763
516.000000, 0.147223
515.000000, 0.193156
514.000000, 0.228411
513.000000, 0.240910
512.000000, 0.236069
511.000000, 0.219526
510.000000, 0.200745
509.000000, 0.182994
508.000000, 0.167017
507.000000, 0.153530
506.000000, 0.142597
505.000000, 0.132800
504.000000, 0.125272
503.000000, 0.117729
502.000000, 0.112571
501.000000, 0.108510
500.000000, 0.104142
499.000000, 0.102769
498.000000, 0.101891
497.000000, 0.101871
496.000000, 0.102785
495.000000, 0.104392
494.000000, 0.106842
493.000000, 0.109949
492.000000, 0.113983
491.000000, 0.119437
490.000000, 0.126408
489.000000, 0.134516
488.000000, 0.143959
487.000000, 0.153694
486.000000, 0.163590
485.000000, 0.171616
484.000000, 0.179176
483.000000, 0.185360
482.000000, 0.188547
481.000000, 0.189143
480.000000, 0.188190
479.000000, 0.183926
478.000000, 0.178204
477.000000, 0.172811
476.000000, 0.167396
475.000000, 0.161459
474.000000, 0.154894
473.000000, 0.149220
472.000000, 0.144448
471.000000, 0.138426
470.000000, 0.134015
469.000000, 0.129353
468.000000, 0.125574
467.000000, 0.123347
466.000000, 0.120532
465.000000, 0.117590
464.000000, 0.116379
463.000000, 0.112885
462.000000, 0.110338
461.000000, 0.108499
460.000000, 0.106098
459.000000, 0.105369
458.000000, 0.105356
457.000000, 0.104419
456.000000, 0.102600
455.000000, 0.102732
454.000000, 0.102709
453.000000, 0.102688
452.000000, 0.102321
451.000000, 0.102400
450.000000, 0.102346
449.000000, 0.101774
448.000000, 0.102312
447.000000, 0.103210
446.000000, 0.103040
445.000000, 0.103940
444.000000, 0.105401
443.000000, 0.106418
442.000000, 0.107143
441.000000, 0.108768
440.000000, 0.111333
439.000000, 0.114298
438.000000, 0.117645
437.000000, 0.119784
436.000000, 0.122815
435.000000, 0.126492
434.000000, 0.129735
433.000000, 0.133450
432.000000, 0.136105
431.000000, 0.137670
430.000000, 0.140737
429.000000, 0.144131
428.000000, 0.145793
427.000000, 0.147168
426.000000, 0.147755
425.000000, 0.147600
424.000000, 0.149230
423.000000, 0.150423
422.000000, 0.149871
421.000000, 0.149481
420.000000, 0.148338
419.000000, 0.147233
418.000000, 0.147313
417.000000, 0.147789
416.000000, 0.147637
415.000000, 0.147593
414.000000, 0.147181
413.000000, 0.146677
412.000000, 0.146672
411.000000, 0.146728
410.000000, 0.146386
409.000000, 0.146684
408.000000, 0.146243
407.000000, 0.146038
406.000000, 0.146595
405.000000, 0.146465
404.000000, 0.145814
403.000000, 0.146418
402.000000, 0.146294
401.000000, 0.145329
400.000000, 0.145609
399.000000, 0.145448
398.000000, 0.144198
397.000000, 0.144871
396.000000, 0.145046
395.000000, 0.145087
394.000000, 0.144975
393.000000, 0.144673
392.000000, 0.145172
391.000000, 0.145541
390.000000, 0.145720
389.000000, 0.146412
388.000000, 0.146933
387.000000, 0.147763
386.000000, 0.147338
385.000000, 0.146380
384.000000, 0.146412
383.000000, 0.147508
382.000000, 0.148322
381.000000, 0.149245
380.000000, 0.149047
379.000000, 0.150104
378.000000, 0.150048
377.000000, 0.150536
376.000000, 0.150959
375.000000, 0.150250
374.000000, 0.151002
373.000000, 0.151510
372.000000, 0.152614
371.000000, 0.153070
370.000000, 0.152782
369.000000, 0.153121
368.000000, 0.154574
367.000000, 0.155135
366.000000, 0.155554
365.000000, 0.155878
364.000000, 0.156640
363.000000, 0.157557
362.000000, 0.158772
361.000000, 0.159919
360.000000, 0.160871
359.000000, 0.161480
358.000000, 0.162183
357.000000, 0.164035
356.000000, 0.165288
355.000000, 0.165931
354.000000, 0.166838
353.000000, 0.168869
352.000000, 0.171064
351.000000, 0.173488
350.000000, 0.175663
349.000000, 0.177605
348.000000, 0.181609
347.000000, 0.185872
346.000000, 0.188556
345.000000, 0.192059
344.000000, 0.195167
343.000000, 0.199203
342.000000, 0.201652
341.000000, 0.205594
340.000000, 0.210426
339.000000, 0.214459
338.000000, 0.217875
337.000000, 0.222595
336.000000, 0.227773
335.000000, 0.232990
334.000000, 0.237021
333.000000, 0.242580
332.000000, 0.248870
331.000000, 0.255615
330.000000, 0.262481
329.000000, 0.271158
328.000000, 0.279164
327.000000, 0.288553
326.000000, 0.298823
325.000000, 0.310414
324.000000, 0.322165
323.000000, 0.334015
322.000000, 0.344869
321.000000, 0.354677
320.000000, 0.362826
319.000000, 0.371119
318.000000, 0.373051
317.000000, 0.379411
316.000000, 0.384214
315.000000, 0.389351
314.000000, 0.393923
313.000000, 0.397068
312.000000, 0.401428
311.000000, 0.407623
310.000000, 0.412434
309.000000, 0.417456
308.000000, 0.423262
307.000000, 0.430682
306.000000, 0.436364
305.000000, 0.441591
304.000000, 0.447338
303.000000, 0.452052
302.000000, 0.457370
301.000000, 0.462146
300.000000, 0.466370
