nm, A
800.000000, 0.001257
799.000000, 0.001946
798.000000, 0.001827
797.000000, -0.000238
796.000000, 0.000800
795.000000, -0.000473
794.000000, 0.000695
793.000000, -0.000201
792.000000, -0.000104
791.000000, 0.000688
790.000000, -0.000865
789.000000, -0.001123
788.000000, 0.000204
787.000000, -0.000184
786.000000, -0.000822
785.000000, 0.000954
784.000000, -0.000595
783.000000, 0.000330
782.000000, -0.000019
781.000000, 0.001649
780.000000, 0.000872
779.000000, 0.000482
778.000000, 0.000619
777.000000, 0.000696
776.000000, 0.000161
775.000000, 0.000446
774.000000, -0.000231
773.000000, 0.001212
772.000000, 0.000733
771.000000, 0.000295
770.000000, 0.000157
769.000000, 0.000628
768.000000, 0.000360
767.000000, 0.000355
766.000000, 0.000804
765.000000, 0.000542
764.000000, 0.000236
763.000000, 0.000831
762.000000, 0.000078
761.000000, -0.000188
760.000000, 0.000401
759.000000, 0.000846
758.000000, 0.000327
757.000000, 0.000551
756.000000, 0.000253
755.000000, 0.000177
754.000000, -0.000830
753.000000, -0.000113
752.000000, -0.000039
751.000000, 0.000606
750.000000, 0.000225
749.000000, 0.000274
748.000000, 0.000160
747.000000, -0.000235
746.000000, 0.001085
745.000000, 0.000335
744.000000, 0.000354
743.000000, -0.000271
742.000000, -0.000380
741.000000, 0.000684
740.000000, -0.000712
739.000000, -0.001365
738.000000, 0.000061
737.000000, -0.000767
736.000000, 0.000309
735.000000, 0.000846
734.000000, 0.000415
733.000000, -0.000197
732.000000, 0.000792
731.000000, 0.000501
730.000000, 0.000533
729.000000, 0.000641
728.000000, 0.000404
727.000000, 0.000745
726.000000, 0.000463
725.000000, 0.001339
724.000000, 0.001460
723.000000, 0.000752
722.000000, 0.000000
721.000000, -0.000170
720.000000, 0.000574
719.000000, 0.000583
718.000000, 0.000553
717.000000, 0.000216
716.000000, 0.000773
715.000000, 0.000600
714.000000, 0.001084
713.000000, 0.000853
712.000000, 0.001362
711.000000, 0.000848
710.000000, 0.000147
709.000000, 0.000216
708.000000, 0.000826
707.000000, 0.000591
706.000000, 0.000397
705.000000, 0.000548
704.000000, 0.000491
703.000000, -0.000029
702.000000, -0.000039
701.000000, 0.000683
700.000000, 0.001042
699.000000, 0.000520
698.000000, 0.000951
697.000000, 0.001347
696.000000, 0.000761
695.000000, 0.000543
694.000000, 0.000874
693.000000, 0.000439
692.000000, -0.000230
691.000000, -0.000638
690.000000, -0.000616
689.000000, 0.000032
688.000000, 0.001159
687.000000, 0.001799
686.000000, 0.000889
685.000000, 0.000312
684.000000, 0.000340
683.000000, 0.000217
682.000000, 0.000263
681.000000, 0.000113
680.000000, 0.000411
679.000000, 0.000711
678.000000, 0.000568
677.000000, 0.000285
676.000000, 0.000239
675.000000, 0.000556
674.000000, 0.001015
673.000000, 0.000739
672.000000, 0.000696
671.000000, 0.000707
670.000000, 0.000467
669.000000, -0.000154
668.000000, 0.000068
667.000000, 0.001235
666.000000, 0.001522
665.000000, 0.001193
664.000000, 0.000986
663.000000, 0.001180
662.000000, 0.000805
661.000000, 0.000608
660.000000, 0.000785
659.000000, 0.001111
658.000000, 0.001101
657.000000, 0.001595
656.000000, 0.001157
655.000000, 0.000789
654.000000, -0.000144
653.000000, 0.000155
652.000000, 0.000383
651.000000, -0.000170
650.000000, 0.000831
649.000000, 0.000715
648.000000, 0.000340
647.000000, 0.001273
646.000000, 0.002107
645.000000, 0.001939
644.000000, 0.001168
643.000000, 0.001302
642.000000, 0.001425
641.000000, 0.000520
640.000000, -0.000114
639.000000, 0.000831
638.000000, 0.001368
637.000000, 0.001447
636.000000, 0.001201
635.000000, 0.000046
634.000000, 0.000436
633.000000, 0.001017
632.000000, 0.001745
631.000000, 0.001605
630.000000, -0.000164
629.000000, 0.000773
628.000000, 0.000530
627.000000, 0.000996
626.000000, 0.001676
625.000000, 0.000990
624.000000, 0.001369
623.000000, 0.000956
622.000000, 0.001116
621.000000, 0.000617
620.000000, 0.000601
619.000000, 0.001319
618.000000, 0.001323
617.000000, 0.000916
616.000000, 0.001040
615.000000, 0.001367
614.000000, 0.002139
613.000000, 0.001471
612.000000, 0.001380
611.000000, 0.002147
610.000000, 0.001759
609.000000, 0.001369
608.000000, 0.001980
607.000000, 0.002225
606.000000, 0.001643
605.000000, 0.001232
604.000000, 0.001178
603.000000, 0.000310
602.000000, 0.002059
601.000000, 0.001885
600.000000, 0.002414
599.000000, 0.001900
598.000000, 0.002027
597.000000, 0.002225
596.000000, 0.001790
595.000000, 0.001659
594.000000, 0.002372
593.000000, 0.001710
592.000000, 0.002005
591.000000, 0.001444
590.000000, 0.002605
589.000000, 0.002613
588.000000, 0.000824
587.000000, 0.000587
586.000000, 0.001585
585.000000, 0.001953
584.000000, 0.002130
583.000000, 0.002053
582.000000, 0.002655
581.000000, 0.002174
580.000000, 0.002673
579.000000, 0.003059
578.000000, 0.003352
577.000000, 0.003279
576.000000, 0.002524
575.000000, 0.002957
574.000000, 0.002844
573.000000, 0.001977
572.000000, 0.002833
571.000000, 0.002933
570.000000, 0.003359
569.000000, 0.003548
568.000000, 0.002865
567.000000, 0.002931
566.000000, 0.002096
565.000000, 0.003020
564.000000, 0.003410
563.000000, 0.003711
562.000000, 0.004093
561.000000, 0.003212
560.000000, 0.004697
559.000000, 0.003634
558.000000, 0.004961
557.000000, 0.003264
556.000000, 0.004766
555.000000, 0.004819
554.000000, 0.003824
553.000000, 0.004936
552.000000, 0.004250
551.000000, 0.004679
550.000000, 0.003572
549.000000, 0.005192
548.000000, 0.005429
547.000000, 0.006131
546.000000, 0.006841
545.000000, 0.005480
544.000000, 0.005464
543.000000, 0.005288
542.000000, 0.006500
541.000000, 0.007130
540.000000, 0.007787
539.000000, 0.006674
538.000000, 0.006570
537.000000, 0.006188
536.000000, 0.007222
535.000000, 0.006428
534.000000, 0.007033
533.000000, 0.007392
532.000000, 0.007948
531.000000, 0.007048
530.000000, 0.007069
529.000000, 0.007263
528.000000, 0.009301
527.000000, 0.008589
526.000000, 0.009620
525.000000, 0.009628
524.000000, 0.010823
523.000000, 0.013914
522.000000, 0.016053
521.000000, 0.020166
520.000000, 0.027104
519.000000, 0.038525
518.000000, 0.056650
517.000000, 0.082191
516.000000, 0.118291
515.000000, 0.155782
514.000000, 0.185822
513.000000, 0.199151
512.000000, 0.196901
511.000000, 0.184116
510.000000, 0.167888
509.000000, 0.152853
508.000000, 0.140332
507.000000, 0.127751
506.000000, 0.119618
505.000000, 0.111645
504.000000, 0.104646
503.000000, 0.097843
502.000000, 0.095351
501.000000, 0.091171
500.000000, 0.088615
499.000000, 0.086837
498.000000, 0.086446
497.000000, 0.085489
496.000000, 0.086106
495.000000, 0.086119
494.000000, 0.088772
493.000000, 0.092404
492.000000, 0.096146
491.000000, 0.100758
490.000000, 0.106103
489.000000, 0.112239
488.000000, 0.121174
487.000000, 0.128453
486.000000, 0.134861
485.000000, 0.143015
484.000000, 0.149883
483.000000, 0.154116
482.000000, 0.156222
481.000000, 0.156993
480.000000, 0.155840
479.000000, 0.152474
478.000000, 0.147025
477.000000, 0.143391
476.000000, 0.139302
475.000000, 0.133941
474.000000, 0.128229
473.000000, 0.123783
472.000000, 0.119399
471.000000, 0.115147
470.000000, 0.111728
469.000000, 0.107387
468.000000, 0.104391
467.000000, 0.101652
466.000000, 0.099367
465.000000, 0.097094
464.000000, 0.095624
463.000000, 0.093346
462.000000, 0.091821
461.000000, 0.089446
460.000000, 0.088034
459.000000, 0.086825
458.000000, 0.086691
457.000000, 0.086464
456.000000, 0.085832
455.000000, 0.085985
454.000000, 0.084608
453.000000, 0.084281
452.000000, 0.083834
451.000000, 0.083801
450.000000, 0.084756
449.000000, 0.083382
448.000000, 0.083193
447.000000, 0.084635
446.000000, 0.084787
445.000000, 0.085784
444.000000, 0.086833
443.000000, 0.087860
442.000000, 0.088691
441.000000, 0.089023
440.000000, 0.090651
439.000000, 0.094007
438.000000, 0.097011
437.000000, 0.098492
436.000000, 0.101023
435.000000, 0.104421
434.000000, 0.106730
433.000000, 0.108568
432.000000, 0.109966
431.000000, 0.111958
430.000000, 0.114561
429.000000, 0.116408
428.000000, 0.117873
427.000000, 0.119409
426.000000, 0.120280
425.000000, 0.120220
424.000000, 0.120759
423.000000, 0.121293
422.000000, 0.121120
421.000000, 0.120986
420.000000, 0.119926
419.000000, 0.119218
418.000000, 0.119112
417.000000, 0.118765
416.000000, 0.118991
415.000000, 0.119954
414.000000, 0.119654
413.000000, 0.117970
412.000000, 0.117789
411.000000, 0.118229
410.000000, 0.117379
409.000000, 0.117430
408.000000, 0.117298
407.000000, 0.117178
406.000000, 0.116818
405.000000, 0.117670
404.000000, 0.117835
403.000000, 0.117073
402.000000, 0.117061
401.000000, 0.116279
400.000000, 0.116724
399.000000, 0.116349
398.000000, 0.115942
397.000000, 0.117384
396.000000, 0.116937
395.000000, 0.115626
394.000000, 0.115041
393.000000, 0.116080
392.000000, 0.116667
391.000000, 0.116692
390.000000, 0.116639
389.000000, 0.116349
388.000000, 0.116919
387.000000, 0.118119
386.000000, 0.117798
385.000000, 0.117471
384.000000, 0.117137
383.000000, 0.118250
382.000000, 0.118597
381.000000, 0.118761
380.000000, 0.119279
379.000000, 0.120384
378.000000, 0.119380
377.000000, 0.119485
376.000000, 0.119994
375.000000, 0.120300
374.000000, 0.120458
373.000000, 0.121054
372.000000, 0.121298
371.000000, 0.122140
370.000000, 0.122330
369.000000, 0.121665
368.000000, 0.122369
367.000000, 0.123739
366.000000, 0.123987
365.000000, 0.125176
364.000000, 0.125517
363.000000, 0.127320
362.000000, 0.127534
361.000000, 0.127699
360.000000, 0.128510
359.000000, 0.129991
358.000000, 0.132010
357.000000, 0.132274
356.000000, 0.132311
355.000000, 0.133208
354.000000, 0.134489
353.000000, 0.135969
352.000000, 0.138416
351.000000, 0.140697
350.000000, 0.141923
349.000000, 0.142500
348.000000, 0.146647
347.000000, 0.149416
346.000000, 0.151688
345.000000, 0.154984
344.000000, 0.158412
343.000000, 0.160713
342.000000, 0.163540
341.000000, 0.166425
340.000000, 0.170512
339.000000, 0.173487
338.000000, 0.176430
337.000000, 0.179729
336.000000, 0.184297
335.000000, 0.189522
334.000000, 0.191989
333.000000, 0.196761
332.000000, 0.202229
331.000000, 0.208178
330.000000, 0.212689
329.000000, 0.220580
328.000000, 0.226763
327.000000, 0.233313
326.000000, 0.242436
325.000000, 0.251998
324.000000, 0.262118
323.000000, 0.271109
322.000000, 0.280569
321.000000, 0.288416
320.000000, 0.295151
319.000000, 0.301846
318.000000, 0.306701
317.000000, 0.312105
316.000000, 0.315907
315.000000, 0.319994
314.000000, 0.323236
313.000000, 0.325805
312.000000, 0.330101
311.000000, 0.334646
310.000000, 0.338714
309.000000, 0.343191
308.000000, 0.348889
307.000000, 0.353691
306.000000, 0.359043
305.000000, 0.363209
304.000000, 0.368719
303.000000, 0.371894
302.000000, 0.376808
301.000000, 0.380794
300.000000, 0.384032
