nm, A
800.000000, -0.001155
799.000000, 0.000216
798.000000, 0.000718
797.000000, -0.000550
796.000000, 0.000863
795.000000, 0.000210
794.000000, 0.000178
793.000000, -0.000008
792.000000, 0.000074
791.000000, 0.000192
790.000000, -0.000561
789.000000, -0.000684
788.000000, 0.000043
787.000000, 0.000143
786.000000, 0.000676
785.000000, 0.000051
784.000000, 0.000463
783.000000, -0.000930
782.000000, -0.000549
781.000000, 0.000916
780.000000, 0.000738
779.000000, 0.000584
778.000000, 0.000342
777.000000, -0.000915
776.000000, -0.000833
775.000000, -0.000449
774.000000, 0.000856
773.000000, -0.000384
772.000000, -0.000573
771.000000, 0.000159
770.000000, 0.000445
769.000000, 0.000103
768.000000, 0.000897
767.000000, 0.000239
766.000000, -0.000845
765.000000, -0.000293
764.000000, 0.000295
763.000000, 0.001736
762.000000, 0.000659
761.000000, 0.000209
760.000000, -0.000147
759.000000, -0.000231
758.000000, 0.000590
757.000000, -0.000180
756.000000, -0.000118
755.000000, -0.000181
754.000000, -0.000322
753.000000, -0.000698
752.000000, -0.000266
751.000000, 0.000691
750.000000, 0.001367
749.000000, 0.001217
748.000000, 0.000230
747.000000, 0.000495
746.000000, 0.000446
745.000000, 0.000907
744.000000, 0.000763
743.000000, 0.000394
742.000000, 0.000008
741.000000, 0.000106
740.000000, 0.001191
739.000000, 0.000036
738.000000, -0.000467
737.000000, -0.000226
736.000000, 0.000096
735.000000, -0.000192
734.000000, -0.000091
733.000000, -0.000428
732.000000, -0.000360
731.000000, 0.000740
730.000000, 0.000010
729.000000, 0.000840
728.000000, -0.000077
727.000000, -0.000135
726.000000, 0.000098
725.000000, -0.000241
724.000000, -0.000364
723.000000, 0.000797
722.000000, -0.000256
721.000000, -0.000883
720.000000, -0.000022
719.000000, 0.000106
718.000000, -0.000796
717.000000, -0.000857
716.000000, -0.000612
715.000000, 0.000453
714.000000, -0.000162
713.000000, 0.000201
712.000000, -0.000100
711.000000, -0.000607
710.000000, -0.001041
709.000000, -0.000638
708.000000, -0.000164
707.000000, 0.000002
706.000000, -0.000839
705.000000, -0.000548
704.000000, 0.001164
703.000000, 0.001029
702.000000, 0.000338
701.000000, -0.000034
700.000000, 0.000164
699.000000, -0.000365
698.000000, -0.000393
697.000000, -0.000384
696.000000, -0.000180
695.000000, 0.000647
694.000000, 0.000526
693.000000, 0.001063
692.000000, 0.000425
691.000000, -0.000279
690.000000, -0.000070
689.000000, 0.000549
688.000000, 0.000575
687.000000, -0.000218
686.000000, -0.000113
685.000000, 0.000422
684.000000, 0.000948
683.000000, 0.001033
682.000000, 0.001351
681.000000, 0.001453
680.000000, 0.000998
679.000000, 0.000518
678.000000, -0.000145
677.000000, -0.000298
676.000000, 0.000099
675.000000, 0.000430
674.000000, 0.000295
673.000000, 0.000373
672.000000, 0.000981
671.000000, 0.001094
670.000000, 0.000987
669.000000, 0.000900
668.000000, 0.000241
667.000000, -0.000333
666.000000, 0.000143
665.000000, -0.000158
664.000000, -0.000080
663.000000, 0.000374
662.000000, 0.000056
661.000000, -0.000028
660.000000, 0.001163
659.000000, 0.001297
658.000000, -0.000027
657.000000, 0.000147
656.000000, 0.000512
655.000000, 0.000181
654.000000, 0.000651
653.000000, -0.000302
652.000000, -0.000289
651.000000, 0.000773
650.000000, 0.000693
649.000000, 0.000416
648.000000, 0.000459
647.000000, 0.000703
646.000000, 0.001128
645.000000, 0.001050
644.000000, 0.000991
643.000000, 0.000468
642.000000, 0.000092
641.000000, -0.000587
640.000000, -0.000060
639.000000, 0.000699
638.000000, 0.000321
637.000000, 0.000054
636.000000, 0.000541
635.000000, -0.000481
634.000000, 0.000294
633.000000, 0.001119
632.000000, 0.000673
631.000000, -0.000792
630.000000, 0.000026
629.000000, 0.000657
628.000000, 0.000914
627.000000, 0.000165
626.000000, 0.001132
625.000000, 0.001706
624.000000, 0.001389
623.000000, 0.001827
622.000000, 0.000635
621.000000, -0.000016
620.000000, 0.000846
619.000000, 0.001579
618.000000, 0.000986
617.000000, 0.001736
616.000000, 0.001056
615.000000, 0.000712
614.000000, 0.000519
613.000000, 0.000737
612.000000, 0.000964
611.000000, 0.001007
610.000000, 0.000610
609.000000, 0.000931
608.000000, 0.001073
607.000000, 0.000434
606.000000, 0.001133
605.000000, 0.001280
604.000000, 0.001532
603.000000, 0.001808
602.000000, 0.001040
601.000000, -0.000058
600.000000, 0.000653
599.000000, 0.000849
598.000000, 0.001551
597.000000, 0.000820
596.000000, 0.001596
595.000000, 0.001362
594.000000, 0.000429
593.000000, 0.000602
592.000000, 0.001504
591.000000, 0.002739
590.000000, 0.001906
589.000000, 0.001415
588.000000, 0.001411
587.000000, 0.001934
586.000000, 0.001295
585.000000, 0.001522
584.000000, 0.001463
583.000000, 0.001841
582.000000, 0.000849
581.000000, 0.000531
580.000000, 0.002412
579.000000, 0.001700
578.000000, 0.001296
577.000000, 0.001870
576.000000, 0.001723
575.000000, 0.001907
574.000000, 0.001645
573.000000, 0.000829
572.000000, 0.001340
571.000000, 0.002796
570.000000, 0.001893
569.000000, 0.002008
568.000000, 0.002304
567.000000, 0.002191
566.000000, 0.001598
565.000000, 0.001984
564.000000, 0.002080
563.000000, 0.002894
562.000000, 0.001264
561.000000, 0.002054
560.000000, 0.002277
559.000000, 0.002418
558.000000, 0.002702
557.000000, 0.001797
556.000000, 0.002952
555.000000, 0.003277
554.000000, 0.002576
553.000000, 0.002768
552.000000, 0.002995
551.000000, 0.002507
550.000000, 0.003501
549.000000, 0.002813
548.000000, 0.004475
547.000000, 0.003803
546.000000, 0.004519
545.000000, 0.003286
544.000000, 0.004071
543.000000, 0.004779
542.000000, 0.003757
541.000000, 0.004565
540.000000, 0.005195
539.000000, 0.005930
538.000000, 0.004579
537.000000, 0.004161
536.000000, 0.004953
535.000000, 0.005316
534.000000, 0.005298
533.000000, 0.005122
532.000000, 0.005237
531.000000, 0.005235
530.000000, 0.005147
529.000000, 0.004821
528.000000, 0.005464
527.000000, 0.005740
526.000000, 0.006422
525.000000, 0.007851
524.000000, 0.008403
523.000000, 0.010655
522.000000, 0.012396
521.000000, 0.017176
520.000000, 0.024049
519.000000, 0.033762
518.000000, 0.051750
517.000000, 0.077081
516.000000, 0.110279
515.000000, 0.143787
514.000000, 0.168932
513.000000, 0.179161
512.000000, 0.175876
511.000000, 0.163851
510.000000, 0.148799
509.000000, 0.135095
508.000000, 0.124090
507.000000, 0.113918
506.000000, 0.105668
505.000000, 0.097839
504.000000, 0.091861
503.000000, 0.086751
502.000000, 0.082500
501.000000, 0.080417
500.000000, 0.077535
499.000000, 0.075602
498.000000, 0.074739
497.000000, 0.073736
496.000000, 0.073813
495.000000, 0.075361
494.000000, 0.077898
493.000000, 0.080850
492.000000, 0.084468
491.000000, 0.088353
490.000000, 0.093077
489.000000, 0.100945
488.000000, 0.106507
487.000000, 0.113940
486.000000, 0.120086
485.000000, 0.126953
484.000000, 0.132756
483.000000, 0.136737
482.000000, 0.139491
481.000000, 0.139926
480.000000, 0.137824
479.000000, 0.134312
478.000000, 0.130490
477.000000, 0.127020
476.000000, 0.121583
475.000000, 0.117410
474.000000, 0.112674
473.000000, 0.108741
472.000000, 0.104994
471.000000, 0.101188
470.000000, 0.097776
469.000000, 0.094888
468.000000, 0.092567
467.000000, 0.089286
466.000000, 0.088300
465.000000, 0.086597
464.000000, 0.084795
463.000000, 0.083623
462.000000, 0.081635
461.000000, 0.080456
460.000000, 0.079807
459.000000, 0.077828
458.000000, 0.077572
457.000000, 0.076493
456.000000, 0.074582
455.000000, 0.075166
454.000000, 0.074585
453.000000, 0.074672
452.000000, 0.075307
451.000000, 0.074340
450.000000, 0.074040
449.000000, 0.073960
448.000000, 0.074186
447.000000, 0.074463
446.000000, 0.074285
445.000000, 0.075246
444.000000, 0.076549
443.000000, 0.077456
442.000000, 0.077256
441.000000, 0.078294
440.000000, 0.080835
439.000000, 0.082729
438.000000, 0.085079
437.000000, 0.087218
436.000000, 0.089118
435.000000, 0.092403
434.000000, 0.094750
433.000000, 0.095841
432.000000, 0.097946
431.000000, 0.099918
430.000000, 0.100658
429.000000, 0.102554
428.000000, 0.104191
427.000000, 0.104940
426.000000, 0.105977
425.000000, 0.106650
424.000000, 0.106599
423.000000, 0.106844
422.000000, 0.107610
421.000000, 0.107844
420.000000, 0.106749
419.000000, 0.105890
418.000000, 0.106376
417.000000, 0.106595
416.000000, 0.106168
415.000000, 0.106173
414.000000, 0.106025
413.000000, 0.105560
412.000000, 0.104958
411.000000, 0.104660
410.000000, 0.105109
409.000000, 0.104899
408.000000, 0.104802
407.000000, 0.104471
406.000000, 0.104526
405.000000, 0.104881
404.000000, 0.103250
403.000000, 0.103962
402.000000, 0.104493
401.000000, 0.104807
400.000000, 0.104764
399.000000, 0.104416
398.000000, 0.103773
397.000000, 0.103358
396.000000, 0.103659
395.000000, 0.103058
394.000000, 0.103240
393.000000, 0.104372
392.000000, 0.103919
391.000000, 0.103032
390.000000, 0.103727
389.000000, 0.104604
388.000000, 0.103644
387.000000, 0.104786
386.000000, 0.105122
385.000000, 0.104912
384.000000, 0.104755
383.000000, 0.104124
382.000000, 0.106016
381.000000, 0.106213
380.000000, 0.106969
379.000000, 0.107203
378.000000, 0.106934
377.000000, 0.107046
376.000000, 0.108229
375.000000, 0.107973
374.000000, 0.108638
373.000000, 0.108238
372.000000, 0.108561
371.000000, 0.109662
370.000000, 0.109733
369.000000, 0.109777
368.000000, 0.110460
367.000000, 0.110367
366.000000, 0.110942
365.000000, 0.111960
364.000000, 0.113329
363.000000, 0.113409
362.000000, 0.113986
361.000000, 0.114480
360.000000, 0.114112
359.000000, 0.115748
358.000000, 0.117334
357.000000, 0.117210
356.000000, 0.118447
355.000000, 0.119016
354.000000, 0.120823
353.000000, 0.121662
352.000000, 0.123063
351.000000, 0.125968
350.000000, 0.127263
349.000000, 0.129097
348.000000, 0.131241
347.000000, 0.134482
346.000000, 0.137256
345.000000, 0.138895
344.000000, 0.141705
343.000000, 0.142741
342.000000, 0.144714
341.000000, 0.148234
340.000000, 0.152392
339.000000, 0.154603
338.000000, 0.156724
337.000000, 0.162426
336.000000, 0.164974
335.000000, 0.169111
334.000000, 0.172142
333.000000, 0.176208
332.000000, 0.181691
331.000000, 0.186529
330.000000, 0.192432
329.000000, 0.198744
328.000000, 0.206363
327.000000, 0.213826
326.000000, 0.223081
325.000000, 0.233394
324.000000, 0.242242
323.000000, 0.252796
322.000000, 0.262900
321.000000, 0.272992
320.000000, 0.282472
319.000000, 0.290249
318.000000, 0.297904
317.000000, 0.305547
316.000000, 0.313908
315.000000, 0.318926
314.000000, 0.326438
313.000000, 0.333855
312.000000, 0.340655
311.000000, 0.349455
310.000000, 0.356919
309.000000, 0.366795
308.000000, 0.377989
307.000000, 0.386728
306.000000, 0.395732
305.000000, 0.407108
304.000000, 0.417125
303.000000, 0.425937
302.000000, 0.434050
301.000000, 0.442700
300.000000, 0.449394
