  440.0000	              140
  441.0000	              132
  442.0000	              109
  443.0000	               99
  444.0000	              105
  445.0000	              105
  446.0000	               92
  447.0000	               71
  448.0000	              120
  449.0000	              139
  450.0000	              114
  451.0000	              113
  452.0000	              138
  453.0000	              108
  454.0000	              114
  455.0000	              160
  456.0000	              105
  457.0000	              147
  458.0000	              138
  459.0000	              171
  460.0000	              108
  461.0000	              108
  462.0000	              132
  463.0000	              139
  464.0000	               63
  465.0000	              108
  466.0000	               57
  467.0000	               78
  468.0000	               90
  469.0000	               76
  470.0000	               78
  471.0000	              107
  472.0000	              114
  473.0000	              113
  474.0000	              105
  475.0000	              144
  476.0000	              111
  477.0000	              110
  478.0000	               91
  479.0000	              105
  480.0000	              111
  481.0000	              104
  482.0000	              135
  483.0000	              146
  484.0000	               81
  485.0000	               96
  486.0000	              125
  487.0000	              139
  488.0000	              141
  489.0000	              177
  490.0000	              222
  491.0000	              275
  492.0000	              171
  493.0000	              159
  494.0000	              179
  495.0000	              120
  496.0000	              189
  497.0000	              168
  498.0000	              167
  499.0000	              165
  500.0000	              204
  501.0000	              264
  502.0000	              228
  503.0000	              284
  504.0000	              359
  505.0000	              522
  506.0000	              672
  507.0000	              838
  508.0000	              857
  509.0000	             1141
  510.0000	             1603
  511.0000	             1802
  512.0000	             2196
  513.0000	             2171
  514.0000	             1792
  515.0000	             1589
  516.0000	             1104
  517.0000	              743
  518.0000	              660
  519.0000	              477
  520.0000	              435
  521.0000	              363
  522.0000	              225
  523.0000	              306
  524.0000	              273
  525.0000	              188
  526.0000	              177
  527.0000	              152
  528.0000	              192
  529.0000	              170
  530.0000	              148
  531.0000	              140
  532.0000	              188
  533.0000	              180
  534.0000	              156
  535.0000	              185
  536.0000	              196
  537.0000	              258
  538.0000	              233
  539.0000	              276
  540.0000	              300
  541.0000	              278
  542.0000	              283
  543.0000	              345
  544.0000	              327
  545.0000	              290
  546.0000	              375
  547.0000	              413
  548.0000	              392
  549.0000	              353
  550.0000	              336
  551.0000	              310
  552.0000	              441
  553.0000	              462
  554.0000	              424
  555.0000	              483
  556.0000	              461
  557.0000	              367
  558.0000	              555
  559.0000	              483
  560.0000	              512
  561.0000	              497
  562.0000	              512
  563.0000	              477
  564.0000	              581
  565.0000	              607
  566.0000	              659
  567.0000	              794
  568.0000	              755
  569.0000	              853
  570.0000	              820
  571.0000	              913
  572.0000	              833
  573.0000	              898
  574.0000	             1016
  575.0000	              918
  576.0000	             1053
  577.0000	             1119
  578.0000	             1091
  579.0000	             1216
  580.0000	             1346
  581.0000	             1362
  582.0000	             1414
  583.0000	             1378
  584.0000	             1355
  585.0000	             1586
  586.0000	             1559
  587.0000	             1775
  588.0000	             1638
  589.0000	             1817
  590.0000	             1791
  591.0000	             1870
  592.0000	             1960
  593.0000	             2072
  594.0000	             1983
  595.0000	             1971
  596.0000	             2137
  597.0000	             2310
  598.0000	             2260
  599.0000	             2298
  600.0000	             2530
  601.0000	             2508
  602.0000	             2617
  603.0000	             2517
  604.0000	             2821
  605.0000	             2729
  606.0000	             2584
  607.0000	             2932
  608.0000	             2662
  609.0000	             2886
  610.0000	             2976
  611.0000	             3057
  612.0000	             2932
  613.0000	             3105
  614.0000	             3003
  615.0000	             3101
  616.0000	             3176
  617.0000	             3272
  618.0000	             3294
  619.0000	             3284
  620.0000	             3248
  621.0000	             3266
  622.0000	             3511
  623.0000	             3385
  624.0000	             3426
  625.0000	             3582
  626.0000	             3546
  627.0000	             3535
  628.0000	             3708
  629.0000	             3607
  630.0000	             3477
  631.0000	             3548
  632.0000	             3568
  633.0000	             3565
  634.0000	             3608
  635.0000	             3655
  636.0000	             3456
  637.0000	             3756
  638.0000	             3661
  639.0000	             3556
  640.0000	             3578
  641.0000	             3501
  642.0000	             3548
  643.0000	             3319
  644.0000	             3608
  645.0000	             3357
  646.0000	             3246
  647.0000	             3420
  648.0000	             3359
  649.0000	             3432
  650.0000	             3372
  651.0000	             3317
  652.0000	             3355
  653.0000	             3129
  654.0000	             3075
  655.0000	             3316
  656.0000	             3227
  657.0000	             2953
  658.0000	             2974
  659.0000	             2902
  660.0000	             3000
  661.0000	             2969
  662.0000	             3096
  663.0000	             2971
  664.0000	             2938
  665.0000	             2832
  666.0000	             2955
  667.0000	             2777
  668.0000	             2483
  669.0000	             2525
  670.0000	             2431
  671.0000	             2629
  672.0000	             2608
  673.0000	             2524
  674.0000	             2338
  675.0000	             2371
  676.0000	             2261
  677.0000	             2138
  678.0000	             2211
  679.0000	             2092
  680.0000	             2115
  681.0000	             2074
  682.0000	             2107
  683.0000	             2168
  684.0000	             1843
  685.0000	             1796
  686.0000	             1739
  687.0000	             1785
  688.0000	             1749
  689.0000	             1938
  690.0000	             1973
  691.0000	             1856
  692.0000	             1775
  693.0000	             1836
  694.0000	             1874
  695.0000	             1873
  696.0000	             1606
  697.0000	             1757
  698.0000	             1637
  699.0000	             1568
  700.0000	             1576
  701.0000	             1445
  702.0000	             1460
  703.0000	             1575
  704.0000	             1485
  705.0000	             1422
  706.0000	             1343
  707.0000	             1343
  708.0000	             1327
  709.0000	             1344
  710.0000	             1227
  711.0000	             1178
  712.0000	             1165
  713.0000	             1220
  714.0000	             1194
  715.0000	              963
  716.0000	             1016
  717.0000	             1000
  718.0000	              964
  719.0000	              941
  720.0000	             1012
  721.0000	              892
  722.0000	              901
  723.0000	              863
  724.0000	              964
  725.0000	              759
  726.0000	              777
  727.0000	              852
  728.0000	              850
  729.0000	              832
  730.0000	              678
  731.0000	              678
  732.0000	              761
  733.0000	              729
  734.0000	              684
  735.0000	              578
  736.0000	              672
  737.0000	              613
  738.0000	              561
  739.0000	              512
  740.0000	              538
  741.0000	              528
  742.0000	              532
  743.0000	              518
  744.0000	              507
  745.0000	              455
  746.0000	              466
  747.0000	              483
  748.0000	              439
  749.0000	              381
  750.0000	              428
  751.0000	              328
  752.0000	              409
  753.0000	              397
  754.0000	              360
  755.0000	              380
  756.0000	              339
  757.0000	              357
  758.0000	              375
  759.0000	              356
  760.0000	              302
  761.0000	              312
  762.0000	              309
  763.0000	              278
  764.0000	              309
  765.0000	              349
  766.0000	              320
  767.0000	              290
  768.0000	              253
  769.0000	              230
  770.0000	              241
  771.0000	              300
  772.0000	              219
  773.0000	              290
  774.0000	              257
  775.0000	              267
  776.0000	              237
  777.0000	              254
  778.0000	              235
  779.0000	              216
  780.0000	              214
  781.0000	              239
  782.0000	              234
  783.0000	              174
  784.0000	              201
  785.0000	              225
  786.0000	              185
  787.0000	              228
  788.0000	              203
  789.0000	              217
  790.0000	              190
  791.0000	              217
  792.0000	              207
  793.0000	              149
  794.0000	              180
  795.0000	              164
  796.0000	              185
  797.0000	              120
  798.0000	              132
  799.0000	              179
  800.0000	              177
