4.410000000000000000e+02	3.246816446611349577e-02
4.420000000000000000e+02	3.546760666157169201e-02
4.430000000000000000e+02	3.873144704537215960e-02
4.440000000000000000e+02	4.228177937061833314e-02
4.450000000000000000e+02	4.614243208709078309e-02
4.460000000000000000e+02	5.033909470058144098e-02
4.470000000000000000e+02	5.489945250519975839e-02
4.480000000000000000e+02	5.985333017632801095e-02
4.490000000000000000e+02	6.523284473511471726e-02
4.500000000000000000e+02	7.107256841930600921e-02
4.510000000000000000e+02	7.740970201983674026e-02
4.520000000000000000e+02	8.428425926791376088e-02
4.530000000000000000e+02	9.173926288330304379e-02
4.540000000000000000e+02	9.982095292117558472e-02
4.550000000000000000e+02	1.085790080821342901e-01
4.560000000000000000e+02	1.180667806779175932e-01
4.570000000000000000e+02	1.283415459737176634e-01
4.580000000000000000e+02	1.394647666570370259e-01
4.590000000000000000e+02	1.515023732124710643e-01
4.600000000000000000e+02	1.645250610117182655e-01
4.610000000000000000e+02	1.786086049584393043e-01
4.620000000000000000e+02	1.938341925582051095e-01
4.630000000000000000e+02	2.102887763146989442e-01
4.640000000000000000e+02	2.280654463844246638e-01
4.650000000000000000e+02	2.472638244533936491e-01
4.660000000000000000e+02	2.679904798305125513e-01
4.670000000000000000e+02	2.903593687835669401e-01
4.680000000000000000e+02	3.144922981747279023e-01
4.690000000000000000e+02	3.405194144832321412e-01
4.700000000000000000e+02	3.685797193332632227e-01
4.710000000000000000e+02	3.988216126748722612e-01
4.720000000000000000e+02	4.314034647949871459e-01
4.730000000000000000e+02	4.664942183639115281e-01
4.740000000000000000e+02	5.042740217502054145e-01
4.750000000000000000e+02	5.449348948631117517e-01
4.760000000000000000e+02	5.886814288068018541e-01
4.770000000000000000e+02	6.357315206542344388e-01
4.780000000000000000e+02	6.863171446704305900e-01
4.790000000000000000e+02	7.406851613349602070e-01
4.800000000000000000e+02	7.990981655315263499e-01
4.810000000000000000e+02	8.618353752881940943e-01
4.820000000000000000e+02	9.291935624650713432e-01
4.830000000000000000e+02	1.001488026796664821e+00
4.840000000000000000e+02	1.079053614703590069e+00
4.850000000000000000e+02	1.162245784292523343e+00
4.860000000000000000e+02	1.251441717963860167e+00
4.870000000000000000e+02	1.347041484043468795e+00
4.880000000000000000e+02	1.449469248847585989e+00
4.890000000000000000e+02	1.559174540578559753e+00
4.900000000000000000e+02	1.676633566436300349e+00
4.910000000000000000e+02	1.802350584356740226e+00
4.920000000000000000e+02	1.936859331322793754e+00
4.930000000000000000e+02	2.080724515925973517e+00
4.940000000000000000e+02	2.234543434593264433e+00
4.950000000000000000e+02	2.398948175877288591e+00
4.960000000000000000e+02	2.574611626741240222e+00
4.970000000000000000e+02	2.762276612174972446e+00
4.980000000000000000e+02	2.962908523688957185e+00
4.990000000000000000e+02	3.178417721896559911e+00
5.000000000000000000e+02	3.414633787820103628e+00
5.010000000000000000e+02	3.691816121733139333e+00
5.020000000000000000e+02	4.076142365715266891e+00
5.030000000000000000e+02	4.758219440341044937e+00
5.040000000000000000e+02	6.210646001824240869e+00
5.050000000000000000e+02	9.424043514505118679e+00
5.060000000000000000e+02	1.610888208854048642e+01
5.070000000000000000e+02	2.857432778279942909e+01
5.080000000000000000e+02	4.891817395003582902e+01
5.090000000000000000e+02	7.745879160443817568e+01
5.100000000000000000e+02	1.110856049441361790e+02
5.110000000000000000e+02	1.428904305518795752e+02
5.120000000000000000e+02	1.641554754690698417e+02
5.130000000000000000e+02	1.681987650938812919e+02
5.140000000000000000e+02	1.538245511084200530e+02
5.150000000000000000e+02	1.259747184073731034e+02
5.160000000000000000e+02	9.310333920216238823e+01
5.170000000000000000e+02	6.315713438902328392e+01
5.180000000000000000e+02	4.073065049055405495e+01
5.190000000000000000e+02	2.662487506991006470e+01
5.200000000000000000e+02	1.919480753134082818e+01
5.210000000000000000e+02	1.607370977253053468e+01
5.220000000000000000e+02	1.528865474478345021e+01
5.230000000000000000e+02	1.559977319395168749e+01
5.240000000000000000e+02	1.637566321176618445e+01
5.250000000000000000e+02	1.734804870469071147e+01
5.260000000000000000e+02	1.842107963874509124e+01
5.270000000000000000e+02	1.956677427176344608e+01
5.280000000000000000e+02	2.077980367728378042e+01
5.290000000000000000e+02	2.206138121190445744e+01
5.300000000000000000e+02	2.341442705209301778e+01
5.310000000000000000e+02	2.484233076033462595e+01
5.320000000000000000e+02	2.634868062550248169e+01
5.330000000000000000e+02	2.793721462386572796e+01
5.340000000000000000e+02	2.961181508481709912e+01
5.350000000000000000e+02	3.137651079323984860e+01
5.360000000000000000e+02	3.323548015833925007e+01
5.370000000000000000e+02	3.519305447325171343e+01
5.380000000000000000e+02	3.725372112796637936e+01
5.390000000000000000e+02	3.942212675060589788e+01
5.400000000000000000e+02	4.170308026491216680e+01
5.410000000000000000e+02	4.410155585270989320e+01
5.420000000000000000e+02	4.662269580981634221e+01
5.430000000000000000e+02	4.927181328345837841e+01
5.440000000000000000e+02	5.205439487885118410e+01
5.450000000000000000e+02	5.497610312219057960e+01
5.460000000000000000e+02	5.804277876692657401e+01
5.470000000000000000e+02	6.126044292980864014e+01
5.480000000000000000e+02	6.463529904283481642e+01
5.490000000000000000e+02	6.817373460689631770e+01
5.500000000000000000e+02	7.188232273258275029e+01
5.510000000000000000e+02	7.576782345331608326e+01
5.520000000000000000e+02	7.983718479569938609e+01
5.530000000000000000e+02	8.409754359171502358e+01
5.540000000000000000e+02	8.855622601718279441e+01
5.550000000000000000e+02	9.322074784069081943e+01
5.560000000000000000e+02	9.809881436704955604e+01
5.570000000000000000e+02	1.031983200591912180e+02
5.580000000000000000e+02	1.085273478223407722e+02
5.590000000000000000e+02	1.140941679342340649e+02
5.600000000000000000e+02	1.199072366051414491e+02
5.610000000000000000e+02	1.259751941514876279e+02
5.620000000000000000e+02	1.323068627669308341e+02
5.630000000000000000e+02	1.389112438748863667e+02
5.640000000000000000e+02	1.457975150466520233e+02
5.650000000000000000e+02	1.529750264695113628e+02
5.660000000000000000e+02	1.604532969494702002e+02
5.670000000000000000e+02	1.682420094336082741e+02
5.680000000000000000e+02	1.763510060374161412e+02
5.690000000000000000e+02	1.847902825629323331e+02
5.700000000000000000e+02	1.935699824940015219e+02
5.710000000000000000e+02	2.027003904555372742e+02
5.720000000000000000e+02	2.121919251243050724e+02
5.730000000000000000e+02	2.220551315794328104e+02
5.740000000000000000e+02	2.323006730816086645e+02
5.750000000000000000e+02	2.429393222707541042e+02
5.760000000000000000e+02	2.539819517728421090e+02
5.770000000000000000e+02	2.654395242074881480e+02
5.780000000000000000e+02	2.773230815889596670e+02
5.790000000000000000e+02	2.896437341143376898e+02
5.800000000000000000e+02	3.024126483337175841e+02
5.810000000000000000e+02	3.156410346985532556e+02
5.820000000000000000e+02	3.293401344855332695e+02
5.830000000000000000e+02	3.435212060947268924e+02
5.840000000000000000e+02	3.581955107221443768e+02
5.850000000000000000e+02	3.733742974083321542e+02
5.860000000000000000e+02	3.890687874661526848e+02
5.870000000000000000e+02	4.052901582924860122e+02
5.880000000000000000e+02	4.220495265702371626e+02
5.890000000000000000e+02	4.393579308687259868e+02
5.900000000000000000e+02	4.572263136522906279e+02
5.910000000000000000e+02	4.756655027087137455e+02
5.920000000000000000e+02	4.946861920109320749e+02
5.930000000000000000e+02	5.142989220273569799e+02
5.940000000000000000e+02	5.345140594980408650e+02
5.950000000000000000e+02	5.553417766958756374e+02
5.960000000000000000e+02	5.767920301939666388e+02
5.970000000000000000e+02	5.988745391623216392e+02
5.980000000000000000e+02	6.215987632189956003e+02
5.990000000000000000e+02	6.449738798628513905e+02
6.000000000000000000e+02	6.690087615171182733e+02
6.010000000000000000e+02	6.937119522149463364e+02
6.020000000000000000e+02	7.190916439601768388e+02
6.030000000000000000e+02	7.451556527985468392e+02
6.040000000000000000e+02	7.719113946365267793e+02
6.050000000000000000e+02	7.993658608469482942e+02
6.060000000000000000e+02	8.275255937025056028e+02
6.070000000000000000e+02	8.563966616800897782e+02
6.080000000000000000e+02	8.859846346807574946e+02
6.090000000000000000e+02	9.162945592119193634e+02
6.100000000000000000e+02	9.473309335800473718e+02
6.110000000000000000e+02	9.790976831438600811e+02
6.120000000000000000e+02	1.011598135679515053e+03
6.130000000000000000e+02	1.044834996910833524e+03
6.140000000000000000e+02	1.078810326258987061e+03
6.150000000000000000e+02	1.113525512867367979e+03
6.160000000000000000e+02	1.148981251958583698e+03
6.170000000000000000e+02	1.185177521581581914e+03
6.180000000000000000e+02	1.222113559807893580e+03
6.190000000000000000e+02	1.259787842436820256e+03
6.200000000000000000e+02	1.298198061270095877e+03
6.210000000000000000e+02	1.337341103017127580e+03
6.220000000000000000e+02	1.377213028892352440e+03
6.230000000000000000e+02	1.417809054966502345e+03
6.240000000000000000e+02	1.459123533333713340e+03
6.250000000000000000e+02	1.501149934156355130e+03
6.260000000000000000e+02	1.543880828649251725e+03
6.270000000000000000e+02	1.587307873064596834e+03
6.280000000000000000e+02	1.631421793738300721e+03
6.290000000000000000e+02	1.676212373257787931e+03
6.300000000000000000e+02	1.721668437810345495e+03
6.310000000000000000e+02	1.767777845770039448e+03
6.320000000000000000e+02	1.814527477579936431e+03
6.330000000000000000e+02	1.861903226984897174e+03
6.340000000000000000e+02	1.909889993668573197e+03
6.350000000000000000e+02	1.958471677346398792e+03
6.360000000000000000e+02	2.007631173364335609e+03
6.370000000000000000e+02	2.057350369850948482e+03
6.380000000000000000e+02	2.107610146467968661e+03
6.390000000000000000e+02	2.158390374801962480e+03
6.400000000000000000e+02	2.209669920436951088e+03
6.410000000000000000e+02	2.261426646744921527e+03
6.420000000000000000e+02	2.313637420428073710e+03
6.430000000000000000e+02	2.366278118843386892e+03
6.440000000000000000e+02	2.419323639136693600e+03
6.450000000000000000e+02	2.472747909209865611e+03
6.460000000000000000e+02	2.526523900541008970e+03
6.470000000000000000e+02	2.580623642873739300e+03
6.480000000000000000e+02	2.635018240787600462e+03
6.490000000000000000e+02	2.689677892157624228e+03
6.500000000000000000e+02	2.744571908506795353e+03
6.510000000000000000e+02	2.799668737250906815e+03
6.520000000000000000e+02	2.854935985830881236e+03
6.530000000000000000e+02	2.910340447723155648e+03
6.540000000000000000e+02	2.965848130314198897e+03
6.550000000000000000e+02	3.021424284620638900e+03
6.560000000000000000e+02	3.077033436831824929e+03
6.570000000000000000e+02	3.132639421647004838e+03
6.580000000000000000e+02	3.188205417374603712e+03
6.590000000000000000e+02	3.243693982756422429e+03
6.600000000000000000e+02	3.299067095474885264e+03
6.610000000000000000e+02	3.354286192296857280e+03
6.620000000000000000e+02	3.409312210802904247e+03
6.630000000000000000e+02	3.464105632646367667e+03
6.640000000000000000e+02	3.518626528282110030e+03
6.650000000000000000e+02	3.572834603100425284e+03
6.660000000000000000e+02	3.626689244897287153e+03
6.670000000000000000e+02	3.680149572607941082e+03
6.680000000000000000e+02	3.733174486226788304e+03
6.690000000000000000e+02	3.785722717832584294e+03
6.700000000000000000e+02	3.837752883634237605e+03
6.710000000000000000e+02	3.889223536948874880e+03
6.720000000000000000e+02	3.940093222020445410e+03
6.730000000000000000e+02	3.990320528583927626e+03
6.740000000000000000e+02	4.039864147077166308e+03
6.750000000000000000e+02	4.088682924399603507e+03
6.760000000000000000e+02	4.136735920114581859e+03
6.770000000000000000e+02	4.183982462989595660e+03
6.780000000000000000e+02	4.230382207766778265e+03
6.790000000000000000e+02	4.275895192054095787e+03
6.800000000000000000e+02	4.320481893226190550e+03
6.810000000000000000e+02	4.364103285222526210e+03
6.820000000000000000e+02	4.406720895129498786e+03
6.830000000000000000e+02	4.448296859432485689e+03
6.840000000000000000e+02	4.488793979823392874e+03
6.850000000000000000e+02	4.528175778449130121e+03
6.860000000000000000e+02	4.566406552486657347e+03
6.870000000000000000e+02	4.603451427930731370e+03
6.880000000000000000e+02	4.639276412481256557e+03
6.890000000000000000e+02	4.673848447418276010e+03
6.900000000000000000e+02	4.707135458354012371e+03
6.910000000000000000e+02	4.739106404753099923e+03
6.920000000000000000e+02	4.769731328114132339e+03
6.930000000000000000e+02	4.798981398707975131e+03
6.940000000000000000e+02	4.826828960770862977e+03
6.950000000000000000e+02	4.853247576053201556e+03
6.960000000000000000e+02	4.878212065628129494e+03
6.970000000000000000e+02	4.901698549867351176e+03
6.980000000000000000e+02	4.923684486495421879e+03
6.990000000000000000e+02	4.944148706637617579e+03
7.000000000000000000e+02	4.963071448780722676e+03
7.010000000000000000e+02	4.980434390570479991e+03
7.020000000000000000e+02	4.996220678374083036e+03
7.030000000000000000e+02	5.010414954540953659e+03
7.040000000000000000e+02	5.023003382300085832e+03
7.050000000000000000e+02	5.033973668237445963e+03
7.060000000000000000e+02	5.043315082302325209e+03
7.070000000000000000e+02	5.051018475297069926e+03
7.080000000000000000e+02	5.057076293810274365e+03
7.090000000000000000e+02	5.061482592559326804e+03
7.100000000000000000e+02	5.064233044114066615e+03
7.110000000000000000e+02	5.065324945979300537e+03
7.120000000000000000e+02	5.064757225019944599e+03
7.130000000000000000e+02	5.062530439218648098e+03
7.140000000000000000e+02	5.058646776761876936e+03
7.150000000000000000e+02	5.053110052456543599e+03
7.160000000000000000e+02	5.045925701485401987e+03
7.170000000000000000e+02	5.037100770515516160e+03
7.180000000000000000e+02	5.026643906180170234e+03
7.190000000000000000e+02	5.014565340960559297e+03
7.200000000000000000e+02	5.000876876499547507e+03
7.210000000000000000e+02	4.985591864385573899e+03
7.220000000000000000e+02	4.968725184450512643e+03
7.230000000000000000e+02	4.950293220630851465e+03
7.240000000000000000e+02	4.930313834447026238e+03
7.250000000000000000e+02	4.908806336160977480e+03
7.260000000000000000e+02	4.885791453677143181e+03
7.270000000000000000e+02	4.861291299256973616e+03
7.280000000000000000e+02	4.835329334121784086e+03
7.290000000000000000e+02	4.807930331023260806e+03
7.300000000000000000e+02	4.779120334865163386e+03
7.310000000000000000e+02	4.748926621463835545e+03
7.320000000000000000e+02	4.717377654538882780e+03
7.330000000000000000e+02	4.684503041028888219e+03
7.340000000000000000e+02	4.650333484830293855e+03
7.350000000000000000e+02	4.614900739060545675e+03
7.360000000000000000e+02	4.578237556949261489e+03
7.370000000000000000e+02	4.540377641463606778e+03
7.380000000000000000e+02	4.501355593776128444e+03
7.390000000000000000e+02	4.461206860685138963e+03
7.400000000000000000e+02	4.419967681099204128e+03
7.410000000000000000e+02	4.377675031698506245e+03
7.420000000000000000e+02	4.334366571886736892e+03
7.430000000000000000e+02	4.290080588147772687e+03
7.440000000000000000e+02	4.244855937921654004e+03
7.450000000000000000e+02	4.198731993114378383e+03
7.460000000000000000e+02	4.151748583355713890e+03
7.470000000000000000e+02	4.103945939118600108e+03
7.480000000000000000e+02	4.055364634812842723e+03
7.490000000000000000e+02	4.006045531964582551e+03
7.500000000000000000e+02	3.956029722591596965e+03
7.510000000000000000e+02	3.905358472882730439e+03
7.520000000000000000e+02	3.854073167287775505e+03
7.530000000000000000e+02	3.802215253121879869e+03
7.540000000000000000e+02	3.749826185786053429e+03
7.550000000000000000e+02	3.696947374702648176e+03
7.560000000000000000e+02	3.643620130061726286e+03
7.570000000000000000e+02	3.589885610471080781e+03
7.580000000000000000e+02	3.535784771599337091e+03
7.590000000000000000e+02	3.481358315898004548e+03
7.600000000000000000e+02	3.426646643484662945e+03
7.610000000000000000e+02	3.371689804265579824e+03
7.620000000000000000e+02	3.316527451372065116e+03
7.630000000000000000e+02	3.261198795980698378e+03
7.640000000000000000e+02	3.205742563583332867e+03
7.650000000000000000e+02	3.150196951768386043e+03
7.660000000000000000e+02	3.094599589570497301e+03
7.670000000000000000e+02	3.038987498441103526e+03
7.680000000000000000e+02	2.983397054887871491e+03
7.690000000000000000e+02	2.927863954826337704e+03
7.700000000000000000e+02	2.872423179682409682e+03
7.710000000000000000e+02	2.817108964279711472e+03
7.720000000000000000e+02	2.761954766541090976e+03
7.730000000000000000e+02	2.706993239028914559e+03
7.740000000000000000e+02	2.652256202344137364e+03
7.750000000000000000e+02	2.597774620399541163e+03
7.760000000000000000e+02	2.543578577577947726e+03
7.770000000000000000e+02	2.489697257781743247e+03
7.780000000000000000e+02	2.436158925375625586e+03
7.790000000000000000e+02	2.382990908020126426e+03
7.800000000000000000e+02	2.330219581389266750e+03
7.810000000000000000e+02	2.277870355761526298e+03
7.820000000000000000e+02	2.225967664469324063e+03
7.830000000000000000e+02	2.174534954188303800e+03
7.840000000000000000e+02	2.123594677043977299e+03
7.850000000000000000e+02	2.073168284509646128e+03
7.860000000000000000e+02	2.023276223066081911e+03
7.870000000000000000e+02	1.973937931590128983e+03
7.880000000000000000e+02	1.925171840436252751e+03
7.890000000000000000e+02	1.876995372172079669e+03
7.900000000000000000e+02	1.829424943926178230e+03
7.910000000000000000e+02	1.782475971303693541e+03
7.920000000000000000e+02	1.736162873823019709e+03
7.930000000000000000e+02	1.690499081824404129e+03
7.940000000000000000e+02	1.645497044799323703e+03
7.950000000000000000e+02	1.601168241087559863e+03
7.960000000000000000e+02	1.557523188887203787e+03
7.970000000000000000e+02	1.514571458521298837e+03
7.980000000000000000e+02	1.472321685903479874e+03
7.990000000000000000e+02	1.430781587143846082e+03
8.000000000000000000e+02	1.389957974235305983e+03
8.010000000000000000e+02	1.349856771759869844e+03
8.020000000000000000e+02	1.310483034553748666e+03
8.030000000000000000e+02	1.271840966269680393e+03
8.040000000000000000e+02	1.233933938774660646e+03
8.050000000000000000e+02	1.196764512321134816e+03
8.060000000000000000e+02	1.160334456429809961e+03
8.070000000000000000e+02	1.124644771422436179e+03
8.080000000000000000e+02	1.089695710543311407e+03
8.090000000000000000e+02	1.055486802608782000e+03
8.100000000000000000e+02	1.022016875124670491e+03
8.110000000000000000e+02	9.892840778123687642e+02
8.120000000000000000e+02	9.572859064852658548e+02
8.130000000000000000e+02	9.260192272182198394e+02
8.140000000000000000e+02	8.954803007539572945e+02
8.150000000000000000e+02	8.656648070915510971e+02
8.160000000000000000e+02	8.365678702034938397e+02
8.170000000000000000e+02	8.081840828293643426e+02
8.180000000000000000e+02	7.805075312956124662e+02
8.190000000000000000e+02	7.535318203126429353e+02
8.200000000000000000e+02	7.272500977020521304e+02
8.210000000000000000e+02	7.016550790086590723e+02
8.220000000000000000e+02	6.767390719537745554e+02
8.230000000000000000e+02	6.524940006880320880e+02
8.240000000000000000e+02	6.289114298040099129e+02
8.250000000000000000e+02	6.059825880708256136e+02
8.260000000000000000e+02	5.836983918548529573e+02
8.270000000000000000e+02	5.620494681927120837e+02
8.280000000000000000e+02	5.410261774846950402e+02
8.290000000000000000e+02	5.206186357788029682e+02
8.300000000000000000e+02	5.008167366176031123e+02
8.310000000000000000e+02	4.816101724221222184e+02
8.320000000000000000e+02	4.629884553890101415e+02
8.330000000000000000e+02	4.449409378791994527e+02
8.340000000000000000e+02	4.274568322782614018e+02
8.350000000000000000e+02	4.105252303106066734e+02
8.360000000000000000e+02	3.941351217916084693e+02
8.370000000000000000e+02	3.782754128035987833e+02
8.380000000000000000e+02	3.629349432835504103e+02
8.390000000000000000e+02	3.481025040120551353e+02
8.400000000000000000e+02	3.337668529949722824e+02
8.410000000000000000e+02	3.199167312308372857e+02
8.420000000000000000e+02	3.065408778587757297e+02
8.430000000000000000e+02	2.936280446832787447e+02
8.440000000000000000e+02	2.811670100737438815e+02
8.450000000000000000e+02	2.691465922381740938e+02
8.460000000000000000e+02	2.575556618718636628e+02
8.470000000000000000e+02	2.463831541832598475e+02
8.480000000000000000e+02	2.356180803004979225e+02
8.490000000000000000e+02	2.252495380633465629e+02
8.500000000000000000e+02	2.152667222064713144e+02
8.510000000000000000e+02	2.056589339410346611e+02
8.520000000000000000e+02	1.964155899426901613e+02
8.530000000000000000e+02	1.875262307550062246e+02
8.540000000000000000e+02	1.789805286182590010e+02
8.550000000000000000e+02	1.707682947343816409e+02
8.560000000000000000e+02	1.628794859796296350e+02
8.570000000000000000e+02	1.553042110772379090e+02
8.580000000000000000e+02	1.480327362429911204e+02
8.590000000000000000e+02	1.410554903172159982e+02
8.600000000000000000e+02	1.343630693972273491e+02
8.610000000000000000e+02	1.279462409847242697e+02
8.620000000000000000e+02	1.217959476630363724e+02
8.630000000000000000e+02	1.159033103194699947e+02
8.640000000000000000e+02	1.102596309282939728e+02
8.650000000000000000e+02	1.048563949101448571e+02
8.660000000000000000e+02	9.968527308381790419e+01
8.670000000000000000e+02	9.473812322654629270e+01
8.680000000000000000e+02	9.000699125896102260e+01
8.690000000000000000e+02	8.548411207096729925e+01
8.700000000000000000e+02	8.116191000477134310e+01
8.710000000000000000e+02	7.703299901125254223e+01
8.720000000000000000e+02	7.309018249579213489e+01
8.730000000000000000e+02	6.932645286955323627e+01
8.740000000000000000e+02	6.573499082205353261e+01
8.750000000000000000e+02	6.230916433068631477e+01
8.760000000000000000e+02	5.904252742262868026e+01
8.770000000000000000e+02	5.592881870433396330e+01
8.780000000000000000e+02	5.296195967353070699e+01
8.790000000000000000e+02	5.013605282836054755e+01
8.800000000000000000e+02	4.744537958796774291e+01
8.810000000000000000e+02	4.488439803851822063e+01
8.820000000000000000e+02	4.244774051827224071e+01
8.830000000000000000e+02	4.013021105496407870e+01
8.840000000000000000e+02	3.792678266835946488e+01
8.850000000000000000e+02	3.583259455046382413e+01
8.860000000000000000e+02	3.384294913545076611e+01
8.870000000000000000e+02	3.195330907096282758e+01
8.880000000000000000e+02	3.015929410201691852e+01
8.890000000000000000e+02	2.845667787831818885e+01
8.900000000000000000e+02	2.684138469535709604e+01
8.910000000000000000e+02	2.530948617922894428e+01
8.920000000000000000e+02	2.385719792468355038e+01
8.930000000000000000e+02	2.248087609547628674e+01
8.940000000000000000e+02	2.117701399566183440e+01
8.950000000000000000e+02	1.994223862003997993e+01
8.960000000000000000e+02	1.877330719153908234e+01
8.970000000000000000e+02	1.766710369289988947e+01
8.980000000000000000e+02	1.662063539960814396e+01
8.990000000000000000e+02	1.563102942061497203e+01
9.000000000000000000e+02	1.469552925298250656e+01
9.010000000000000000e+02	1.381149135619910240e+01
9.020000000000000000e+02	1.297638175152282791e+01
9.030000000000000000e+02	1.218777265133779331e+01
9.040000000000000000e+02	1.144333912314039559e+01
9.050000000000000000e+02	1.074085579241891786e+01
9.060000000000000000e+02	1.007819358834360557e+01
9.070000000000000000e+02	9.453316535851730151e+00
9.080000000000000000e+02	8.864278597388695502e+00
9.090000000000000000e+02	8.309220567256124568e+00
9.100000000000000000e+02	7.786367021217720286e+00
9.110000000000000000e+02	7.294023323726995578e+00
9.120000000000000000e+02	6.830572694864764927e+00
9.130000000000000000e+02	6.394473338811112129e+00
9.140000000000000000e+02	5.984255635424704955e+00
9.150000000000000000e+02	5.598519396262548575e+00
9.160000000000000000e+02	5.235931186145599270e+00
9.170000000000000000e+02	4.895221711159161160e+00
9.180000000000000000e+02	4.575183273772939430e+00
9.190000000000000000e+02	4.274667295571983772e+00
9.200000000000000000e+02	3.992581907908410610e+00
9.210000000000000000e+02	3.727889610612640681e+00
9.220000000000000000e+02	3.479604998743221156e+00
9.230000000000000000e+02	3.246792557204561280e+00
9.240000000000000000e+02	3.028564522923122837e+00
9.250000000000000000e+02	2.824078814143147653e+00
9.260000000000000000e+02	2.632537026283948922e+00
9.270000000000000000e+02	2.453182493690382771e+00
9.280000000000000000e+02	2.285298416507613339e+00
9.290000000000000000e+02	2.128206051818711142e+00
9.300000000000000000e+02	1.981262968100224064e+00
9.310000000000000000e+02	1.843861361974988622e+00
9.320000000000000000e+02	1.715426436173660196e+00
9.330000000000000000e+02	1.595414837555976684e+00
9.340000000000000000e+02	1.483313153989328503e+00
9.350000000000000000e+02	1.378636468835619189e+00
9.360000000000000000e+02	1.280926971757122113e+00
9.370000000000000000e+02	1.189752624517882218e+00
9.380000000000000000e+02	1.104705880428784814e+00
9.390000000000000000e+02	1.025402456061432988e+00
9.400000000000000000e+02	9.514801538380296408e-01
9.410000000000000000e+02	8.825977340914202829e-01
9.420000000000000000e+02	8.184338351807477485e-01
9.430000000000000000e+02	7.586859402438297373e-01
9.440000000000000000e+02	7.030693891667672002e-01
9.450000000000000000e+02	6.513164343544359802e-01
9.460000000000000000e+02	6.031753388919229852e-01
9.470000000000000000e+02	5.584095156965181994e-01
9.480000000000000000e+02	5.167967062722251814e-01
9.490000000000000000e+02	4.781281976937257205e-01
9.500000000000000000e+02	4.422080764640281547e-01
9.510000000000000000e+02	4.088525179094870676e-01
9.520000000000000000e+02	3.778891097972611468e-01
9.530000000000000000e+02	3.491562088833264355e-01
9.540000000000000000e+02	3.225023291238217071e-01
9.550000000000000000e+02	2.977855603083881531e-01
9.560000000000000000e+02	2.748730159013251240e-01
9.570000000000000000e+02	2.536403089044526049e-01
9.580000000000000000e+02	2.339710545845473111e-01
9.590000000000000000e+02	2.157563989378379621e-01
9.600000000000000000e+02	1.988945717942745828e-01
9.610000000000000000e+02	1.832904634948982758e-01
9.620000000000000000e+02	1.688552241065945925e-01
9.630000000000000000e+02	1.555058841696538852e-01
9.640000000000000000e+02	1.431649960047845782e-01
9.650000000000000000e+02	1.317602946374848150e-01
9.660000000000000000e+02	1.212243774288006976e-01
9.670000000000000000e+02	1.114944015324873944e-01
9.680000000000000000e+02	1.025117983293146323e-01
9.690000000000000000e+02	9.422200401968018613e-02
9.700000000000000000e+02	8.657420558573454550e-02
9.710000000000000000e+02	7.952110136384353545e-02
9.720000000000000000e+02	7.301867549734733509e-02
9.730000000000000000e+02	6.702598556819693021e-02
9.740000000000000000e+02	6.150496273410684805e-02
9.750000000000000000e+02	5.642022372532153746e-02
9.760000000000000000e+02	5.173889408193928924e-02
9.770000000000000000e+02	4.743044203892474858e-02
9.780000000000000000e+02	4.346652249147138491e-02
9.790000000000000000e+02	3.982083049820806658e-02
9.800000000000000000e+02	3.646896380388688075e-02
9.810000000000000000e+02	3.338829388662122727e-02
9.820000000000000000e+02	3.055784505745335819e-02
9.830000000000000000e+02	2.795818116203271572e-02
9.840000000000000000e+02	2.557129945545190408e-02
9.850000000000000000e+02	2.338053124184532802e-02
9.860000000000000000e+02	2.137044889018589397e-02
9.870000000000000000e+02	1.952677885683941003e-02
9.880000000000000000e+02	1.783632036385015066e-02
9.890000000000000000e+02	1.628686939964957975e-02
9.900000000000000000e+02	1.486714772590968722e-02
9.910000000000000000e+02	1.356673659061764271e-02
9.920000000000000000e+02	1.237601486313560407e-02
9.930000000000000000e+02	1.128610132205082675e-02
9.940000000000000000e+02	1.028880084102130194e-02
9.950000000000000000e+02	9.376554231604300460e-03
9.960000000000000000e+02	8.542391515229551605e-03
9.970000000000000000e+02	7.779888409063706947e-03
9.980000000000000000e+02	7.083125822525226760e-03
9.990000000000000000e+02	6.446652172663861272e-03
1.000000000000000000e+03	5.865448337536175762e-03
