  440.0000	              110
  441.0000	              115
  442.0000	              132
  443.0000	              123
  444.0000	              122
  445.0000	              122
  446.0000	              135
  447.0000	              147
  448.0000	              113
  449.0000	              130
  450.0000	              120
  451.0000	              129
  452.0000	              136
  453.0000	              114
  454.0000	              152
  455.0000	               99
  456.0000	              146
  457.0000	              135
  458.0000	              169
  459.0000	              174
  460.0000	              186
  461.0000	              155
  462.0000	              165
  463.0000	              129
  464.0000	              165
  465.0000	               99
  466.0000	              123
  467.0000	              170
  468.0000	              119
  469.0000	              106
  470.0000	              138
  471.0000	               83
  472.0000	              116
  473.0000	              100
  474.0000	              140
  475.0000	              138
  476.0000	              164
  477.0000	              174
  478.0000	              158
  479.0000	              220
  480.0000	              239
  481.0000	              222
  482.0000	              255
  483.0000	              276
  484.0000	              279
  485.0000	              357
  486.0000	              312
  487.0000	              343
  488.0000	              437
  489.0000	              563
  490.0000	              673
  491.0000	              615
  492.0000	              620
  493.0000	              737
  494.0000	              726
  495.0000	              971
  496.0000	              986
  497.0000	             1205
  498.0000	             1410
  499.0000	             1900
  500.0000	             2352
  501.0000	             3029
  502.0000	             3489
  503.0000	             4725
  504.0000	             6045
  505.0000	             7520
  506.0000	            10055
  507.0000	            13354
  508.0000	            16570
  509.0000	            22189
  510.0000	            27991
  511.0000	            35266
  512.0000	            40211
  513.0000	            40788
  514.0000	            35572
  515.0000	            28028
  516.0000	            20366
  517.0000	            14553
  518.0000	            10481
  519.0000	             8097
  520.0000	             5890
  521.0000	             4594
  522.0000	             3774
  523.0000	             2887
  524.0000	             2473
  525.0000	             2173
  526.0000	             1883
  527.0000	             1680
  528.0000	             1475
  529.0000	             1369
  530.0000	             1093
  531.0000	             1240
  532.0000	             1027
  533.0000	             1002
  534.0000	             1058
  535.0000	             1145
  536.0000	             1148
  537.0000	             1120
  538.0000	             1305
  539.0000	             1153
  540.0000	             1353
  541.0000	             1402
  542.0000	             1362
  543.0000	             1395
  544.0000	             1507
  545.0000	             1479
  546.0000	             1794
  547.0000	             1543
  548.0000	             1643
  549.0000	             1567
  550.0000	             1546
  551.0000	             1391
  552.0000	             1382
  553.0000	             1234
  554.0000	             1211
  555.0000	             1204
  556.0000	             1249
  557.0000	             1271
  558.0000	             1144
  559.0000	             1090
  560.0000	             1170
  561.0000	             1185
  562.0000	             1351
  563.0000	             1233
  564.0000	             1381
  565.0000	             1420
  566.0000	             1365
  567.0000	             1293
  568.0000	             1426
  569.0000	             1403
  570.0000	             1565
  571.0000	             1614
  572.0000	             1639
  573.0000	             1626
  574.0000	             1751
  575.0000	             1633
  576.0000	             1769
  577.0000	             1772
  578.0000	             1560
  579.0000	             1815
  580.0000	             1780
  581.0000	             1826
  582.0000	             2015
  583.0000	             2073
  584.0000	             1994
  585.0000	             2165
  586.0000	             2161
  587.0000	             2070
  588.0000	             2026
  589.0000	             2279
  590.0000	             2218
  591.0000	             2257
  592.0000	             2376
  593.0000	             2386
  594.0000	             2418
  595.0000	             2549
  596.0000	             2504
  597.0000	             2564
  598.0000	             2590
  599.0000	             2670
  600.0000	             2459
  601.0000	             2818
  602.0000	             2635
  603.0000	             2621
  604.0000	             2948
  605.0000	             2744
  606.0000	             2941
  607.0000	             3004
  608.0000	             2856
  609.0000	             2876
  610.0000	             3219
  611.0000	             3087
  612.0000	             2857
  613.0000	             3132
  614.0000	             3128
  615.0000	             3172
  616.0000	             3078
  617.0000	             3111
  618.0000	             3125
  619.0000	             3229
  620.0000	             3190
  621.0000	             3125
  622.0000	             3105
  623.0000	             3156
  624.0000	             3262
  625.0000	             3099
  626.0000	             3055
  627.0000	             3183
  628.0000	             3190
  629.0000	             3238
  630.0000	             3360
  631.0000	             3207
  632.0000	             3213
  633.0000	             3132
  634.0000	             3298
  635.0000	             3261
  636.0000	             3086
  637.0000	             3068
  638.0000	             3054
  639.0000	             3105
  640.0000	             2964
  641.0000	             3226
  642.0000	             3128
  643.0000	             2893
  644.0000	             3124
  645.0000	             2919
  646.0000	             2686
  647.0000	             2908
  648.0000	             2791
  649.0000	             2912
  650.0000	             2809
  651.0000	             2702
  652.0000	             2637
  653.0000	             2753
  654.0000	             2729
  655.0000	             2492
  656.0000	             2634
  657.0000	             2473
  658.0000	             2660
  659.0000	             2403
  660.0000	             2405
  661.0000	             2302
  662.0000	             2321
  663.0000	             2397
  664.0000	             2393
  665.0000	             2244
  666.0000	             2295
  667.0000	             2023
  668.0000	             2052
  669.0000	             2164
  670.0000	             2017
  671.0000	             1987
  672.0000	             2131
  673.0000	             2117
  674.0000	             1940
  675.0000	             1842
  676.0000	             1714
  677.0000	             1820
  678.0000	             1912
  679.0000	             1788
  680.0000	             1741
  681.0000	             1636
  682.0000	             1630
  683.0000	             1561
  684.0000	             1584
  685.0000	             1592
  686.0000	             1569
  687.0000	             1540
  688.0000	             1396
  689.0000	             1507
  690.0000	             1472
  691.0000	             1430
  692.0000	             1344
  693.0000	             1361
  694.0000	             1372
  695.0000	             1384
  696.0000	             1401
  697.0000	             1434
  698.0000	             1321
  699.0000	             1212
  700.0000	             1346
  701.0000	             1258
  702.0000	             1265
  703.0000	             1187
  704.0000	             1244
  705.0000	             1106
  706.0000	             1112
  707.0000	             1060
  708.0000	             1042
  709.0000	              977
  710.0000	             1091
  711.0000	             1025
  712.0000	              907
  713.0000	              948
  714.0000	              910
  715.0000	              842
  716.0000	              925
  717.0000	              890
  718.0000	              801
  719.0000	              794
  720.0000	              886
  721.0000	              809
  722.0000	              804
  723.0000	              638
  724.0000	              671
  725.0000	              660
  726.0000	              693
  727.0000	              694
  728.0000	              607
  729.0000	              612
  730.0000	              554
  731.0000	              613
  732.0000	              520
  733.0000	              631
  734.0000	              572
  735.0000	              578
  736.0000	              517
  737.0000	              533
  738.0000	              468
  739.0000	              469
  740.0000	              477
  741.0000	              404
  742.0000	              436
  743.0000	              365
  744.0000	              411
  745.0000	              330
  746.0000	              414
  747.0000	              340
  748.0000	              450
  749.0000	              317
  750.0000	              370
  751.0000	              329
  752.0000	              298
  753.0000	              333
  754.0000	              339
  755.0000	              352
  756.0000	              277
  757.0000	              269
  758.0000	              278
  759.0000	              297
  760.0000	              238
  761.0000	              290
  762.0000	              275
  763.0000	              248
  764.0000	              267
  765.0000	              250
  766.0000	              213
  767.0000	              239
  768.0000	              255
  769.0000	              261
  770.0000	              279
  771.0000	              283
  772.0000	              164
  773.0000	              201
  774.0000	              216
  775.0000	              210
  776.0000	              216
  777.0000	              179
  778.0000	              219
  779.0000	              187
  780.0000	              180
  781.0000	              177
  782.0000	              171
  783.0000	              191
  784.0000	              175
  785.0000	              183
  786.0000	              216
  787.0000	              188
  788.0000	              157
  789.0000	              162
  790.0000	              135
  791.0000	              211
  792.0000	              207
  793.0000	              175
  794.0000	              173
  795.0000	              167
  796.0000	              173
  797.0000	              143
  798.0000	              128
  799.0000	              129
  800.0000	              129
