  440.0000	               90
  441.0000	               89
  442.0000	               96
  443.0000	              117
  444.0000	               57
  445.0000	              123
  446.0000	              102
  447.0000	               96
  448.0000	              108
  449.0000	              111
  450.0000	              108
  451.0000	              108
  452.0000	              111
  453.0000	              129
  454.0000	              119
  455.0000	              120
  456.0000	              140
  457.0000	              111
  458.0000	              135
  459.0000	              135
  460.0000	              123
  461.0000	              115
  462.0000	              119
  463.0000	              128
  464.0000	              114
  465.0000	               81
  466.0000	               84
  467.0000	              101
  468.0000	              104
  469.0000	              131
  470.0000	               87
  471.0000	              105
  472.0000	              156
  473.0000	              132
  474.0000	              188
  475.0000	              176
  476.0000	              167
  477.0000	              306
  478.0000	              232
  479.0000	              315
  480.0000	              328
  481.0000	              452
  482.0000	              444
  483.0000	              569
  484.0000	              599
  485.0000	              638
  486.0000	              668
  487.0000	              729
  488.0000	              888
  489.0000	             1069
  490.0000	             1115
  491.0000	             1350
  492.0000	             1394
  493.0000	             1673
  494.0000	             1736
  495.0000	             2037
  496.0000	             2488
  497.0000	             3014
  498.0000	             3606
  499.0000	             4497
  500.0000	             5426
  501.0000	             6896
  502.0000	             8800
  503.0000	            10764
  504.0000	            14268
  505.0000	            18388
  506.0000	            23153
  507.0000	            29887
  508.0000	            40109
  509.0000	            52053
  510.0000	            68275
  511.0000	            86108
  512.0000	            98514
  513.0000	           102297
  514.0000	            92249
  515.0000	            72865
  516.0000	            54713
  517.0000	            39484
  518.0000	            27847
  519.0000	            20838
  520.0000	            15856
  521.0000	            11988
  522.0000	             9136
  523.0000	             7538
  524.0000	             5785
  525.0000	             4845
  526.0000	             4076
  527.0000	             3455
  528.0000	             2887
  529.0000	             2365
  530.0000	             2016
  531.0000	             1762
  532.0000	             1692
  533.0000	             1432
  534.0000	             1444
  535.0000	             1259
  536.0000	             1305
  537.0000	             1242
  538.0000	             1196
  539.0000	             1385
  540.0000	             1348
  541.0000	             1342
  542.0000	             1498
  543.0000	             1627
  544.0000	             1658
  545.0000	             1622
  546.0000	             1519
  547.0000	             1584
  548.0000	             1650
  549.0000	             1379
  550.0000	             1467
  551.0000	             1400
  552.0000	             1169
  553.0000	             1119
  554.0000	             1289
  555.0000	             1089
  556.0000	             1090
  557.0000	             1023
  558.0000	             1066
  559.0000	              987
  560.0000	             1005
  561.0000	              980
  562.0000	             1029
  563.0000	              981
  564.0000	             1013
  565.0000	              946
  566.0000	             1048
  567.0000	             1148
  568.0000	             1047
  569.0000	             1191
  570.0000	             1152
  571.0000	             1413
  572.0000	             1167
  573.0000	             1220
  574.0000	             1248
  575.0000	             1314
  576.0000	             1132
  577.0000	             1262
  578.0000	             1279
  579.0000	             1266
  580.0000	             1234
  581.0000	             1150
  582.0000	             1285
  583.0000	             1292
  584.0000	             1392
  585.0000	             1383
  586.0000	             1400
  587.0000	             1367
  588.0000	             1370
  589.0000	             1315
  590.0000	             1463
  591.0000	             1319
  592.0000	             1488
  593.0000	             1407
  594.0000	             1431
  595.0000	             1500
  596.0000	             1475
  597.0000	             1594
  598.0000	             1672
  599.0000	             1650
  600.0000	             1835
  601.0000	             1625
  602.0000	             1639
  603.0000	             1680
  604.0000	             1701
  605.0000	             1784
  606.0000	             1703
  607.0000	             1738
  608.0000	             1660
  609.0000	             1681
  610.0000	             1794
  611.0000	             1827
  612.0000	             1693
  613.0000	             1791
  614.0000	             1680
  615.0000	             1930
  616.0000	             1818
  617.0000	             1895
  618.0000	             1804
  619.0000	             1882
  620.0000	             1854
  621.0000	             1798
  622.0000	             1852
  623.0000	             1849
  624.0000	             1773
  625.0000	             1842
  626.0000	             1974
  627.0000	             1928
  628.0000	             1926
  629.0000	             1904
  630.0000	             1743
  631.0000	             1860
  632.0000	             1920
  633.0000	             1838
  634.0000	             1913
  635.0000	             1798
  636.0000	             1871
  637.0000	             1717
  638.0000	             1771
  639.0000	             1723
  640.0000	             1834
  641.0000	             1782
  642.0000	             1748
  643.0000	             1725
  644.0000	             1794
  645.0000	             1634
  646.0000	             1746
  647.0000	             1678
  648.0000	             1609
  649.0000	             1638
  650.0000	             1660
  651.0000	             1745
  652.0000	             1499
  653.0000	             1639
  654.0000	             1463
  655.0000	             1524
  656.0000	             1557
  657.0000	             1535
  658.0000	             1536
  659.0000	             1324
  660.0000	             1465
  661.0000	             1303
  662.0000	             1327
  663.0000	             1416
  664.0000	             1320
  665.0000	             1237
  666.0000	             1335
  667.0000	             1162
  668.0000	             1265
  669.0000	             1262
  670.0000	             1306
  671.0000	             1279
  672.0000	             1109
  673.0000	             1140
  674.0000	             1135
  675.0000	             1155
  676.0000	             1157
  677.0000	             1003
  678.0000	             1136
  679.0000	             1093
  680.0000	              973
  681.0000	              968
  682.0000	              937
  683.0000	              918
  684.0000	              903
  685.0000	              914
  686.0000	              890
  687.0000	              790
  688.0000	              955
  689.0000	              699
  690.0000	              821
  691.0000	              699
  692.0000	              701
  693.0000	              916
  694.0000	              839
  695.0000	              772
  696.0000	              777
  697.0000	              802
  698.0000	              730
  699.0000	              679
  700.0000	              757
  701.0000	              657
  702.0000	              681
  703.0000	              709
  704.0000	              772
  705.0000	              623
  706.0000	              639
  707.0000	              680
  708.0000	              640
  709.0000	              652
  710.0000	              576
  711.0000	              616
  712.0000	              491
  713.0000	              604
  714.0000	              474
  715.0000	              533
  716.0000	              493
  717.0000	              552
  718.0000	              463
  719.0000	              444
  720.0000	              417
  721.0000	              357
  722.0000	              489
  723.0000	              440
  724.0000	              404
  725.0000	              383
  726.0000	              452
  727.0000	              339
  728.0000	              381
  729.0000	              337
  730.0000	              311
  731.0000	              349
  732.0000	              293
  733.0000	              315
  734.0000	              315
  735.0000	              342
  736.0000	              257
  737.0000	              307
  738.0000	              285
  739.0000	              255
  740.0000	              287
  741.0000	              236
  742.0000	              264
  743.0000	              232
  744.0000	              266
  745.0000	              225
  746.0000	              273
  747.0000	              176
  748.0000	              237
  749.0000	              200
  750.0000	              197
  751.0000	              172
  752.0000	              248
  753.0000	              172
  754.0000	              236
  755.0000	              212
  756.0000	              207
  757.0000	              230
  758.0000	              178
  759.0000	              202
  760.0000	              157
  761.0000	              198
  762.0000	              160
  763.0000	              195
  764.0000	              141
  765.0000	              128
  766.0000	              162
  767.0000	              137
  768.0000	              178
  769.0000	              132
  770.0000	              135
  771.0000	              161
  772.0000	              174
  773.0000	              150
  774.0000	              141
  775.0000	              114
  776.0000	              111
  777.0000	              120
  778.0000	              129
  779.0000	              104
  780.0000	              117
  781.0000	              117
  782.0000	               79
  783.0000	              123
  784.0000	              107
  785.0000	              101
  786.0000	              114
  787.0000	              115
  788.0000	              107
  789.0000	              116
  790.0000	              123
  791.0000	              129
  792.0000	               93
  793.0000	               96
  794.0000	              113
  795.0000	               76
  796.0000	              103
  797.0000	               80
  798.0000	               93
  799.0000	               72
  800.0000	              116
