4.410000000000000000e+02	3.042208325759884247e+02
4.420000000000000000e+02	3.115383372670430617e+02
4.430000000000000000e+02	3.189950240387860276e+02
4.440000000000000000e+02	3.265924820767645542e+02
4.450000000000000000e+02	3.343322891792580549e+02
4.460000000000000000e+02	3.422160107489206666e+02
4.470000000000000000e+02	3.502451987677058014e+02
4.480000000000000000e+02	3.584213907553974536e+02
4.490000000000000000e+02	3.667461087120902334e+02
4.500000000000000000e+02	3.752208580449840838e+02
4.510000000000000000e+02	3.838471264798757261e+02
4.520000000000000000e+02	3.926263829577591764e+02
4.530000000000000000e+02	4.015600765169588726e+02
4.540000000000000000e+02	4.106496351612511262e+02
4.550000000000000000e+02	4.198964647144421178e+02
4.560000000000000000e+02	4.293019476618983390e+02
4.570000000000000000e+02	4.388674419795460153e+02
4.580000000000000000e+02	4.485942799508757162e+02
4.590000000000000000e+02	4.584837669725141609e+02
4.600000000000000000e+02	4.685371803489430249e+02
4.610000000000000000e+02	4.787557680769687067e+02
4.620000000000000000e+02	4.891407476205698117e+02
4.630000000000000000e+02	4.996933046767652513e+02
4.640000000000000000e+02	5.104145919331767232e+02
4.650000000000000000e+02	5.213057278179690002e+02
4.660000000000000000e+02	5.323677952428846538e+02
4.670000000000000000e+02	5.436018403400985335e+02
4.680000000000000000e+02	5.550088711936522259e+02
4.690000000000000000e+02	5.665898565662326973e+02
4.700000000000000000e+02	5.783457246220943944e+02
4.710000000000000000e+02	5.902773616469340823e+02
4.720000000000000000e+02	6.023856107655540200e+02
4.730000000000000000e+02	6.146712706581585053e+02
4.740000000000000000e+02	6.271350942761634997e+02
4.750000000000000000e+02	6.397777875583973355e+02
4.760000000000000000e+02	6.526000081486063209e+02
4.770000000000000000e+02	6.656023641151858783e+02
4.780000000000000000e+02	6.787854126740774063e+02
4.790000000000000000e+02	6.921496589157883363e+02
4.800000000000000000e+02	7.056955545375080874e+02
4.810000000000000000e+02	7.194234965813075178e+02
4.820000000000000000e+02	7.333338261794322079e+02
4.830000000000000000e+02	7.474268273077711910e+02
4.840000000000000000e+02	7.617027255491659616e+02
4.850000000000000000e+02	7.761616868729803400e+02
4.860000000000000000e+02	7.908038164740361253e+02
4.870000000000000000e+02	8.056291579730404919e+02
4.880000000000000000e+02	8.206376949529598051e+02
4.890000000000000000e+02	8.358293666601124414e+02
4.900000000000000000e+02	8.512041626005527633e+02
4.910000000000000000e+02	8.667626189298022155e+02
4.920000000000000000e+02	8.825081817133411732e+02
4.930000000000000000e+02	8.984574672669195934e+02
4.940000000000000000e+02	9.146808581296660350e+02
4.950000000000000000e+02	9.314485774496680506e+02
4.960000000000000000e+02	9.497073139683577665e+02
4.970000000000000000e+02	9.724850167028002943e+02
4.980000000000000000e+02	1.008611287359419407e+03
4.990000000000000000e+02	1.081504121583744109e+03
5.000000000000000000e+02	1.247465497701673030e+03
5.010000000000000000e+02	1.628631192335044943e+03
5.020000000000000000e+02	2.462460960694442292e+03
5.030000000000000000e+02	4.158491922685358077e+03
5.040000000000000000e+02	7.332580978374266124e+03
5.050000000000000000e+02	1.276619234888673054e+04
5.060000000000000000e+02	2.123317530435764638e+04
5.070000000000000000e+02	3.317439592676212487e+04
5.080000000000000000e+02	4.829042946665268391e+04
5.090000000000000000e+02	6.523038844692926068e+04
5.100000000000000000e+02	8.160301444925062242e+04
5.110000000000000000e+02	9.444896326963928004e+04
5.120000000000000000e+02	1.010918847742423241e+05
5.130000000000000000e+02	1.000442859328966733e+05
5.140000000000000000e+02	9.155030653022593469e+04
5.150000000000000000e+02	7.749497995355780586e+04
5.160000000000000000e+02	6.072601184638415725e+04
5.170000000000000000e+02	4.412128464944657753e+04
5.180000000000000000e+02	2.981710174118552823e+04
5.190000000000000000e+02	1.886354587492529390e+04
5.200000000000000000e+02	1.132082951009241879e+04
5.210000000000000000e+02	6.618780584910348807e+03
5.220000000000000000e+02	3.955368244016801327e+03
5.230000000000000000e+02	2.583262213820431498e+03
5.240000000000000000e+02	1.942678326043163906e+03
5.250000000000000000e+02	1.675755594092958745e+03
5.260000000000000000e+02	1.581882727406083404e+03
5.270000000000000000e+02	1.560971906312410965e+03
5.280000000000000000e+02	1.568173911619067894e+03
5.290000000000000000e+02	1.585328237396063287e+03
5.300000000000000000e+02	1.605760409495118893e+03
5.310000000000000000e+02	1.627235802426573400e+03
5.320000000000000000e+02	1.649069953481686298e+03
5.330000000000000000e+02	1.671069245048919356e+03
5.340000000000000000e+02	1.693181410307340684e+03
5.350000000000000000e+02	1.715391255227963484e+03
5.360000000000000000e+02	1.737692420374897438e+03
5.370000000000000000e+02	1.760080421937534766e+03
5.380000000000000000e+02	1.782551088062502686e+03
5.390000000000000000e+02	1.805100238390414688e+03
5.400000000000000000e+02	1.827723624578297404e+03
5.410000000000000000e+02	1.850416920864093527e+03
5.420000000000000000e+02	1.873175723441760738e+03
5.430000000000000000e+02	1.895995551297265592e+03
5.440000000000000000e+02	1.918871847308692395e+03
5.450000000000000000e+02	1.941799979432136979e+03
5.460000000000000000e+02	1.964775241948962957e+03
5.470000000000000000e+02	1.987792856771197876e+03
5.480000000000000000e+02	2.010847974804514024e+03
5.490000000000000000e+02	2.033935677368476263e+03
5.500000000000000000e+02	2.057050977673743091e+03
5.510000000000000000e+02	2.080188822355848060e+03
5.520000000000000000e+02	2.103344093065145444e+03
5.530000000000000000e+02	2.126511608112450631e+03
5.540000000000000000e+02	2.149686124169849336e+03
5.550000000000000000e+02	2.172862338026116504e+03
5.560000000000000000e+02	2.196034888396115548e+03
5.570000000000000000e+02	2.219198357783508527e+03
5.580000000000000000e+02	2.242347274396052853e+03
5.590000000000000000e+02	2.265476114112720552e+03
5.600000000000000000e+02	2.288579302501801067e+03
5.610000000000000000e+02	2.311651216889131774e+03
5.620000000000000000e+02	2.334686188475523522e+03
5.630000000000000000e+02	2.357678504502408487e+03
5.640000000000000000e+02	2.380622410464692166e+03
5.650000000000000000e+02	2.403512112369743591e+03
5.660000000000000000e+02	2.426341779041395966e+03
5.670000000000000000e+02	2.449105544467797245e+03
5.680000000000000000e+02	2.471797510191907350e+03
5.690000000000000000e+02	2.494411747743361502e+03
5.700000000000000000e+02	2.516942301110423614e+03
5.710000000000000000e+02	2.539383189250655050e+03
5.720000000000000000e+02	2.561728408638925885e+03
5.730000000000000000e+02	2.583971935851320723e+03
5.740000000000000000e+02	2.606107730183469812e+03
5.750000000000000000e+02	2.628129736301781122e+03
5.760000000000000000e+02	2.650031886926017251e+03
5.770000000000000000e+02	2.671808105541620989e+03
5.780000000000000000e+02	2.693452309140153830e+03
5.790000000000000000e+02	2.714958410986174385e+03
5.800000000000000000e+02	2.736320323408850072e+03
5.810000000000000000e+02	2.757531960616565812e+03
5.820000000000000000e+02	2.778587241532745793e+03
5.830000000000000000e+02	2.799480092651098403e+03
5.840000000000000000e+02	2.820204450908434865e+03
5.850000000000000000e+02	2.840754266573208042e+03
5.860000000000000000e+02	2.861123506147878743e+03
5.870000000000000000e+02	2.881306155283194585e+03
5.880000000000000000e+02	2.901296221702441017e+03
5.890000000000000000e+02	2.921087738133705898e+03
5.900000000000000000e+02	2.940674765248175390e+03
5.910000000000000000e+02	2.960051394602458004e+03
5.920000000000000000e+02	2.979211751582928173e+03
5.930000000000000000e+02	2.998149998350042097e+03
5.940000000000000000e+02	3.016860336780600392e+03
5.950000000000000000e+02	3.035337011405874364e+03
5.960000000000000000e+02	3.053574312343556358e+03
5.970000000000000000e+02	3.071566578221431428e+03
5.980000000000000000e+02	3.089308199090714879e+03
5.990000000000000000e+02	3.106793619326942007e+03
6.000000000000000000e+02	3.124017340516351851e+03
6.010000000000000000e+02	3.140973924325648113e+03
6.020000000000000000e+02	3.157657995353071328e+03
6.030000000000000000e+02	3.174064243958684074e+03
6.040000000000000000e+02	3.190187429071802399e+03
6.050000000000000000e+02	3.206022380973493455e+03
6.060000000000000000e+02	3.221564004052082964e+03
6.070000000000000000e+02	3.236807279529620246e+03
6.080000000000000000e+02	3.251747268157264898e+03
6.090000000000000000e+02	3.266379112877571515e+03
6.100000000000000000e+02	3.280698041451668360e+03
6.110000000000000000e+02	3.294699369049346387e+03
6.120000000000000000e+02	3.308378500800091388e+03
6.130000000000000000e+02	3.321730934303115191e+03
6.140000000000000000e+02	3.334752262094475100e+03
6.150000000000000000e+02	3.347438174069387514e+03
6.160000000000000000e+02	3.359784459857871752e+03
6.170000000000000000e+02	3.371787011151899151e+03
6.180000000000000000e+02	3.383441823982238020e+03
6.190000000000000000e+02	3.394745000943243213e+03
6.200000000000000000e+02	3.405692753363845441e+03
6.210000000000000000e+02	3.416281403423060056e+03
6.220000000000000000e+02	3.426507386208355456e+03
6.230000000000000000e+02	3.436367251715274051e+03
6.240000000000000000e+02	3.445857666786731443e+03
6.250000000000000000e+02	3.454975416990470421e+03
6.260000000000000000e+02	3.463717408433190485e+03
6.270000000000000000e+02	3.472080669509918607e+03
6.280000000000000000e+02	3.480062352587235182e+03
6.290000000000000000e+02	3.487659735619025469e+03
6.300000000000000000e+02	3.494870223693469143e+03
6.310000000000000000e+02	3.501691350510036955e+03
6.320000000000000000e+02	3.508120779785319428e+03
6.330000000000000000e+02	3.514156306586566643e+03
6.340000000000000000e+02	3.519795858591872729e+03
6.350000000000000000e+02	3.525037497275992337e+03
6.360000000000000000e+02	3.529879419020849582e+03
6.370000000000000000e+02	3.534319956149837708e+03
6.380000000000000000e+02	3.538357577885085448e+03
6.390000000000000000e+02	3.541990891226918848e+03
6.400000000000000000e+02	3.545218641754814143e+03
6.410000000000000000e+02	3.548039714349191854e+03
6.420000000000000000e+02	3.550453133833473657e+03
6.430000000000000000e+02	3.552458065535886817e+03
6.440000000000000000e+02	3.554053815770557321e+03
6.450000000000000000e+02	3.555239832237508381e+03
6.460000000000000000e+02	3.556015704341238234e+03
6.470000000000000000e+02	3.556381163427626689e+03
6.480000000000000000e+02	3.556336082938963955e+03
6.490000000000000000e+02	3.555880478486997617e+03
6.500000000000000000e+02	3.555014507843918182e+03
6.510000000000000000e+02	3.553738470851306829e+03
6.520000000000000000e+02	3.552052809247107234e+03
6.530000000000000000e+02	3.549958106410767414e+03
6.540000000000000000e+02	3.547455087026757610e+03
6.550000000000000000e+02	3.544544616666731599e+03
6.560000000000000000e+02	3.541227701290673394e+03
6.570000000000000000e+02	3.537505486667428613e+03
6.580000000000000000e+02	3.533379257715087988e+03
6.590000000000000000e+02	3.528850437761760986e+03
6.600000000000000000e+02	3.523920587727321617e+03
6.610000000000000000e+02	3.518591405226797633e+03
6.620000000000000000e+02	3.512864723596120712e+03
6.630000000000000000e+02	3.506742510841014337e+03
6.640000000000000000e+02	3.500226868509872020e+03
6.650000000000000000e+02	3.493320030491524449e+03
6.660000000000000000e+02	3.486024361738855077e+03
6.670000000000000000e+02	3.478342356919295071e+03
6.680000000000000000e+02	3.470276638993265351e+03
6.690000000000000000e+02	3.461829957721707615e+03
6.700000000000000000e+02	3.453005188103885303e+03
6.710000000000000000e+02	3.443805328746704618e+03
6.720000000000000000e+02	3.434233500166845261e+03
6.730000000000000000e+02	3.424292943027047841e+03
6.740000000000000000e+02	3.413987016307953581e+03
6.750000000000000000e+02	3.403319195416941056e+03
6.760000000000000000e+02	3.392293070235445612e+03
6.770000000000000000e+02	3.380912343106302615e+03
6.780000000000000000e+02	3.369180826762691595e+03
6.790000000000000000e+02	3.357102442200299265e+03
6.800000000000000000e+02	3.344681216494368982e+03
6.810000000000000000e+02	3.331921280563330583e+03
6.820000000000000000e+02	3.318826866880755915e+03
6.830000000000000000e+02	3.305402307137403568e+03
6.840000000000000000e+02	3.291652029855169530e+03
6.850000000000000000e+02	3.277580557954770939e+03
6.860000000000000000e+02	3.263192506279044210e+03
6.870000000000000000e+02	3.248492579073740671e+03
6.880000000000000000e+02	3.233485567427749629e+03
6.890000000000000000e+02	3.218176346674699289e+03
6.900000000000000000e+02	3.202569873757893674e+03
6.910000000000000000e+02	3.186671184560588244e+03
6.920000000000000000e+02	3.170485391203603285e+03
6.930000000000000000e+02	3.154017679312306882e+03
6.940000000000000000e+02	3.137273305255002469e+03
6.950000000000000000e+02	3.120257593354780511e+03
6.960000000000000000e+02	3.102975933076889760e+03
6.970000000000000000e+02	3.085433776193707672e+03
6.980000000000000000e+02	3.067636633929387699e+03
6.990000000000000000e+02	3.049590074086265304e+03
7.000000000000000000e+02	3.031299718155114078e+03
7.010000000000000000e+02	3.012771238411340164e+03
7.020000000000000000e+02	2.994010354999198171e+03
7.030000000000000000e+02	2.975022833006121346e+03
7.040000000000000000e+02	2.955814479529242362e+03
7.050000000000000000e+02	2.936391140736173384e+03
7.060000000000000000e+02	2.916758698922125859e+03
7.070000000000000000e+02	2.896923069565406422e+03
7.080000000000000000e+02	2.876890198383347069e+03
7.090000000000000000e+02	2.856666058390692797e+03
7.100000000000000000e+02	2.836256646962458944e+03
7.110000000000000000e+02	2.815667982903256416e+03
7.120000000000000000e+02	2.794906103525066101e+03
7.130000000000000000e+02	2.773977061735407460e+03
7.140000000000000000e+02	2.752886923137847589e+03
7.150000000000000000e+02	2.731641763146754329e+03
7.160000000000000000e+02	2.710247664118174725e+03
7.170000000000000000e+02	2.688710712498705561e+03
7.180000000000000000e+02	2.667036995994168592e+03
7.190000000000000000e+02	2.645232600759908564e+03
7.200000000000000000e+02	2.623303608614459790e+03
7.210000000000000000e+02	2.601256094278332966e+03
7.220000000000000000e+02	2.579096122639606619e+03
7.230000000000000000e+02	2.556829746047994377e+03
7.240000000000000000e+02	2.534463001639020604e+03
7.250000000000000000e+02	2.512001908689875563e+03
7.260000000000000000e+02	2.489452466008519878e+03
7.270000000000000000e+02	2.466820649357534421e+03
7.280000000000000000e+02	2.444112408914189928e+03
7.290000000000000000e+02	2.421333666768159219e+03
7.300000000000000000e+02	2.398490314458259036e+03
7.310000000000000000e+02	2.375588210549554788e+03
7.320000000000000000e+02	2.352633178252126527e+03
7.330000000000000000e+02	2.329631003082746702e+03
7.340000000000000000e+02	2.306587430570662036e+03
7.350000000000000000e+02	2.283508164008643689e+03
7.360000000000000000e+02	2.260398862250413003e+03
7.370000000000000000e+02	2.237265137555495585e+03
7.380000000000000000e+02	2.214112553482517342e+03
7.390000000000000000e+02	2.190946622831908826e+03
7.400000000000000000e+02	2.167772805638919635e+03
7.410000000000000000e+02	2.144596507217817361e+03
7.420000000000000000e+02	2.121423076258070978e+03
7.430000000000000000e+02	2.098257802973286744e+03
7.440000000000000000e+02	2.075105917303611932e+03
7.450000000000000000e+02	2.051972587172255771e+03
7.460000000000000000e+02	2.028862916796744685e+03
7.470000000000000000e+02	2.005781945055475262e+03
7.480000000000000000e+02	1.982734643910060640e+03
7.490000000000000000e+02	1.959725916883943455e+03
7.500000000000000000e+02	1.936760597597670312e+03
7.510000000000000000e+02	1.913843448361191577e+03
7.520000000000000000e+02	1.890979158823496618e+03
7.530000000000000000e+02	1.868172344679833941e+03
7.540000000000000000e+02	1.845427546436733564e+03
7.550000000000000000e+02	1.822749228234984912e+03
7.560000000000000000e+02	1.800141776730685933e+03
7.570000000000000000e+02	1.777609500034425764e+03
7.580000000000000000e+02	1.755156626708611839e+03
7.590000000000000000e+02	1.732787304822918941e+03
7.600000000000000000e+02	1.710505601067776524e+03
7.610000000000000000e+02	1.688315499925772656e+03
7.620000000000000000e+02	1.666220902900808824e+03
7.630000000000000000e+02	1.644225627804789156e+03
7.640000000000000000e+02	1.622333408101595069e+03
7.650000000000000000e+02	1.600547892308039764e+03
7.660000000000000000e+02	1.578872643451467638e+03
7.670000000000000000e+02	1.557311138583615730e+03
7.680000000000000000e+02	1.535866768350316534e+03
7.690000000000000000e+02	1.514542836616581781e+03
7.700000000000000000e+02	1.493342560146568303e+03
7.710000000000000000e+02	1.472269068337892350e+03
7.720000000000000000e+02	1.451325403009717093e+03
7.730000000000000000e+02	1.430514518244011242e+03
7.740000000000000000e+02	1.409839280279333479e+03
7.750000000000000000e+02	1.389302467456467184e+03
7.760000000000000000e+02	1.368906770215209235e+03
7.770000000000000000e+02	1.348654791141561191e+03
7.780000000000000000e+02	1.328549045064568418e+03
7.790000000000000000e+02	1.308591959202006592e+03
7.800000000000000000e+02	1.288785873354091336e+03
7.810000000000000000e+02	1.269133040144366987e+03
7.820000000000000000e+02	1.249635625306894326e+03
7.830000000000000000e+02	1.230295708018843925e+03
7.840000000000000000e+02	1.211115281277573786e+03
7.850000000000000000e+02	1.192096252321241764e+03
7.860000000000000000e+02	1.173240443092002806e+03
7.870000000000000000e+02	1.154549590740797839e+03
7.880000000000000000e+02	1.136025348172736130e+03
7.890000000000000000e+02	1.117669284632061363e+03
7.900000000000000000e+02	1.099482886325659592e+03
7.910000000000000000e+02	1.081467557084069767e+03
7.920000000000000000e+02	1.063624619058931785e+03
7.930000000000000000e+02	1.045955313455802752e+03
7.940000000000000000e+02	1.028460801301259380e+03
7.950000000000000000e+02	1.011142164243189768e+03
7.960000000000000000e+02	9.940004053831783040e+02
7.970000000000000000e+02	9.770364501398738639e+02
7.980000000000000000e+02	9.602511471422254772e+02
7.990000000000000000e+02	9.436452691514648450e+02
8.000000000000000000e+02	9.272195140107174893e+02
8.010000000000000000e+02	9.109745056211085057e+02
8.020000000000000000e+02	8.949107949432412852e+02
8.030000000000000000e+02	8.790288610229143842e+02
8.040000000000000000e+02	8.633291120399525198e+02
8.050000000000000000e+02	8.478118863790209616e+02
8.060000000000000000e+02	8.324774537212988434e+02
8.070000000000000000e+02	8.173260161558914660e+02
8.080000000000000000e+02	8.023577093098617752e+02
8.090000000000000000e+02	7.875726034957682486e+02
8.100000000000000000e+02	7.729707048756074528e+02
8.110000000000000000e+02	7.585519566400563463e+02
8.120000000000000000e+02	7.443162402019271440e+02
8.130000000000000000e+02	7.302633764027507368e+02
8.140000000000000000e+02	7.163931267314171691e+02
8.150000000000000000e+02	7.027051945538099744e+02
8.160000000000000000e+02	6.891992263523825386e+02
8.170000000000000000e+02	6.758748129746389850e+02
8.180000000000000000e+02	6.627314908894935570e+02
8.190000000000000000e+02	6.497687434504910016e+02
8.200000000000000000e+02	6.369860021648952397e+02
8.210000000000000000e+02	6.243826479676575900e+02
8.220000000000000000e+02	6.119580124992953643e+02
8.230000000000000000e+02	5.997113793867310960e+02
8.240000000000000000e+02	5.876419855261509611e+02
8.250000000000000000e+02	5.757490223669668694e+02
8.260000000000000000e+02	5.640316371959764865e+02
8.270000000000000000e+02	5.524889344208392004e+02
8.280000000000000000e+02	5.411199768520008320e+02
8.290000000000000000e+02	5.299237869822189850e+02
8.300000000000000000e+02	5.188993482628638958e+02
8.310000000000000000e+02	5.080456063761834571e+02
8.320000000000000000e+02	4.973614705027463287e+02
8.330000000000000000e+02	4.868458145832906894e+02
8.340000000000000000e+02	4.764974785742384711e+02
8.350000000000000000e+02	4.663152696961376478e+02
8.360000000000000000e+02	4.562979636743380070e+02
8.370000000000000000e+02	4.464443059712041872e+02
8.380000000000000000e+02	4.367530130092118270e+02
8.390000000000000000e+02	4.272227733842797761e+02
8.400000000000000000e+02	4.178522490687172422e+02
8.410000000000000000e+02	4.086400766031928242e+02
8.420000000000000000e+02	3.995848682771402878e+02
8.430000000000000000e+02	3.906852132970549292e+02
8.440000000000000000e+02	3.819396789421396647e+02
8.450000000000000000e+02	3.733468117067944831e+02
8.460000000000000000e+02	3.649051384294591003e+02
8.470000000000000000e+02	3.566131674073385511e+02
8.480000000000000000e+02	3.484693894965707841e+02
8.490000000000000000e+02	3.404722791974058396e+02
8.500000000000000000e+02	3.326202957240014939e+02
8.510000000000000000e+02	3.249118840584467875e+02
8.520000000000000000e+02	3.173454759886611782e+02
8.530000000000000000e+02	3.099194911298230863e+02
8.540000000000000000e+02	3.026323379290175808e+02
8.550000000000000000e+02	2.954824146528006281e+02
8.560000000000000000e+02	2.884681103574070562e+02
8.570000000000000000e+02	2.815878058413448457e+02
8.580000000000000000e+02	2.748398745801403038e+02
8.590000000000000000e+02	2.682226836430192520e+02
8.600000000000000000e+02	2.617345945913247078e+02
8.610000000000000000e+02	2.553739643584973464e+02
8.620000000000000000e+02	2.491391461114599792e+02
8.630000000000000000e+02	2.430284900932629739e+02
8.640000000000000000e+02	2.370403444468754515e+02
8.650000000000000000e+02	2.311730560200132629e+02
8.660000000000000000e+02	2.254249711509226586e+02
8.670000000000000000e+02	2.197944364350480271e+02
8.680000000000000000e+02	2.142797994725356716e+02
8.690000000000000000e+02	2.088794095965354529e+02
8.700000000000000000e+02	2.035916185822848661e+02
8.710000000000000000e+02	1.984147813369714868e+02
8.720000000000000000e+02	1.933472565703850421e+02
8.730000000000000000e+02	1.883874074463904549e+02
8.740000000000000000e+02	1.835336022152596058e+02
8.750000000000000000e+02	1.787842148269227209e+02
8.760000000000000000e+02	1.741376255252056353e+02
8.770000000000000000e+02	1.695922214231393355e+02
8.780000000000000000e+02	1.651463970594377599e+02
8.790000000000000000e+02	1.607985549362511222e+02
8.800000000000000000e+02	1.565471060383187307e+02
8.810000000000000000e+02	1.523904703336515922e+02
8.820000000000000000e+02	1.483270772558905719e+02
8.830000000000000000e+02	1.443553661684938447e+02
8.840000000000000000e+02	1.404737868109197620e+02
8.850000000000000000e+02	1.366807997269791883e+02
8.860000000000000000e+02	1.329748766755434417e+02
8.870000000000000000e+02	1.293545010238007080e+02
8.880000000000000000e+02	1.258181681232631348e+02
8.890000000000000000e+02	1.223643856687370857e+02
8.900000000000000000e+02	1.189916740404727165e+02
8.910000000000000000e+02	1.156985666297215261e+02
8.920000000000000000e+02	1.124836101479326800e+02
8.930000000000000000e+02	1.093453649198295352e+02
8.940000000000000000e+02	1.062824051606117877e+02
8.950000000000000000e+02	1.032933192375342060e+02
8.960000000000000000e+02	1.003767099161207170e+02
8.970000000000000000e+02	9.753119459127468360e+01
8.980000000000000000e+02	9.475540550355336222e+01
8.990000000000000000e+02	9.204798994087684605e+01
9.000000000000000000e+02	8.940761042594770913e+01
9.010000000000000000e+02	8.683294488965889002e+01
9.020000000000000000e+02	8.432268683077289495e+01
9.030000000000000000e+02	8.187554546215640983e+01
9.040000000000000000e+02	7.949024584385767866e+01
9.050000000000000000e+02	7.716552900331650733e+01
9.060000000000000000e+02	7.490015204299827190e+01
9.070000000000000000e+02	7.269288823574387948e+01
9.080000000000000000e+02	7.054252710813156568e+01
9.090000000000000000e+02	6.844787451214401131e+01
9.100000000000000000e+02	6.640775268543704613e+01
9.110000000000000000e+02	6.442100030050661985e+01
9.120000000000000000e+02	6.248647250304871648e+01
9.130000000000000000e+02	6.060304093980940365e+01
9.140000000000000000e+02	5.876959377622000602e+01
9.150000000000000000e+02	5.698503570411219954e+01
9.160000000000000000e+02	5.524828793980584152e+01
9.170000000000000000e+02	5.355828821286405628e+01
9.180000000000000000e+02	5.191399074580419182e+01
9.190000000000000000e+02	5.031436622505648160e+01
9.200000000000000000e+02	4.875840176345601407e+01
9.210000000000000000e+02	4.724510085455447950e+01
9.220000000000000000e+02	4.577348331903489509e+01
9.230000000000000000e+02	4.434258524350949671e+01
9.240000000000000000e+02	4.295145891197972077e+01
9.250000000000000000e+02	4.159917273023261686e+01
9.260000000000000000e+02	4.028481114344667446e+01
9.270000000000000000e+02	3.900747454727623875e+01
9.280000000000000000e+02	3.776627919268004518e+01
9.290000000000000000e+02	3.656035708475685198e+01
9.300000000000000000e+02	3.538885587584643133e+01
9.310000000000000000e+02	3.425093875315226200e+01
9.320000000000000000e+02	3.314578432113639650e+01
9.330000000000000000e+02	3.207258647893486625e+01
9.340000000000000000e+02	3.103055429303693202e+01
9.350000000000000000e+02	3.001891186546762569e+01
9.360000000000000000e+02	2.903689819770930569e+01
9.370000000000000000e+02	2.808376705059317757e+01
9.380000000000000000e+02	2.715878680038768422e+01
9.390000000000000000e+02	2.626124029130586024e+01
9.400000000000000000e+02	2.539042468465028435e+01
9.410000000000000000e+02	2.454565130480858670e+01
9.420000000000000000e+02	2.372624548230859531e+01
9.430000000000000000e+02	2.293154639413777929e+01
9.440000000000000000e+02	2.216090690152626763e+01
9.450000000000000000e+02	2.141369338538894596e+01
9.460000000000000000e+02	2.068928557961708492e+01
9.470000000000000000e+02	1.998707640240489170e+01
9.480000000000000000e+02	1.930647178579259204e+01
9.490000000000000000e+02	1.864689050360196276e+01
9.500000000000000000e+02	1.800776399793636173e+01
9.510000000000000000e+02	1.738853620441199510e+01
9.520000000000000000e+02	1.678866337628285166e+01
9.530000000000000000e+02	1.620761390761682108e+01
9.540000000000000000e+02	1.564486815567615352e+01
9.550000000000000000e+02	1.509991826265033232e+01
9.560000000000000000e+02	1.457226797688537445e+01
9.570000000000000000e+02	1.406143247374839689e+01
9.580000000000000000e+02	1.356693817626223186e+01
9.590000000000000000e+02	1.308832257564016466e+01
9.600000000000000000e+02	1.262513405184631488e+01
9.610000000000000000e+02	1.217693169430285138e+01
9.620000000000000000e+02	1.174328512286090387e+01
9.630000000000000000e+02	1.132377430914746341e+01
9.640000000000000000e+02	1.091798939839672045e+01
9.650000000000000000e+02	1.052553053186942300e+01
9.660000000000000000e+02	1.014600766996036718e+01
9.670000000000000000e+02	9.779040416089381793e+00
9.680000000000000000e+02	9.424257841467580832e+00
9.690000000000000000e+02	9.081298310826458220e+00
9.700000000000000000e+02	8.749809309193482321e+00
9.710000000000000000e+02	8.429447269793913122e+00
9.720000000000000000e+02	8.119877403155079776e+00
9.730000000000000000e+02	7.820773527485231469e+00
9.740000000000000000e+02	7.531817900395633814e+00
9.750000000000000000e+02	7.252701052031106599e+00
9.760000000000000000e+02	6.983121619670340507e+00
9.770000000000000000e+02	6.722786183854306152e+00
9.780000000000000000e+02	6.471409106097373076e+00
9.790000000000000000e+02	6.228712368232727670e+00
9.800000000000000000e+02	5.994425413440174211e+00
9.810000000000000000e+02	5.768284989001662311e+00
9.820000000000000000e+02	5.550034990826389070e+00
9.830000000000000000e+02	5.339426309784684577e+00
9.840000000000000000e+02	5.136216679886843828e+00
9.850000000000000000e+02	4.940170528340165568e+00
9.860000000000000000e+02	4.751058827514897942e+00
9.870000000000000000e+02	4.568658948846930912e+00
9.880000000000000000e+02	4.392754518702599142e+00
9.890000000000000000e+02	4.223135276228328294e+00
9.900000000000000000e+02	4.059596933205594560e+00
9.910000000000000000e+02	3.901941035929012536e+00
9.920000000000000000e+02	3.749974829123375653e+00
9.930000000000000000e+02	3.603511121913032689e+00
9.940000000000000000e+02	3.462368155854920193e+00
9.950000000000000000e+02	3.326369475044514079e+00
9.960000000000000000e+02	3.195343798301919058e+00
9.970000000000000000e+02	3.069124893443382351e+00
9.980000000000000000e+02	2.947551453641730212e+00
9.990000000000000000e+02	2.830466975877308666e+00
1.000000000000000000e+03	2.717719641479422243e+00
