4.410000000000000000e+02	2.418325150359529729e+01
4.420000000000000000e+02	2.535483939525365926e+01
4.430000000000000000e+02	2.657769412253290042e+01
4.440000000000000000e+02	2.785377078664990336e+01
4.450000000000000000e+02	2.918508479140894352e+01
4.460000000000000000e+02	3.057371303316277178e+01
4.470000000000000000e+02	3.202179508274603137e+01
4.480000000000000000e+02	3.353153435749850075e+01
4.490000000000000000e+02	3.510519928141867041e+01
4.500000000000000000e+02	3.674512443141463791e+01
4.510000000000000000e+02	3.845371166754249970e+01
4.520000000000000000e+02	4.023343124504735613e+01
4.530000000000000000e+02	4.208682290594668274e+01
4.540000000000000000e+02	4.401649694782061317e+01
4.550000000000000000e+02	4.602513526739951999e+01
4.560000000000000000e+02	4.811549237646460142e+01
4.570000000000000000e+02	5.029039638750405317e+01
4.580000000000000000e+02	5.255274996649659869e+01
4.590000000000000000e+02	5.490553125012024793e+01
4.600000000000000000e+02	5.735179472461803130e+01
4.610000000000000000e+02	5.989467206348015793e+01
4.620000000000000000e+02	6.253737292103978973e+01
4.630000000000000000e+02	6.528318567901142444e+01
4.640000000000000000e+02	6.813547814294091154e+01
4.650000000000000000e+02	7.109769818547464126e+01
4.660000000000000000e+02	7.417337433329848295e+01
4.670000000000000000e+02	7.736611629454304762e+01
4.680000000000000000e+02	8.067961542339874370e+01
4.690000000000000000e+02	8.411764511863601967e+01
4.700000000000000000e+02	8.768406115268281553e+01
4.710000000000000000e+02	9.138280192786790224e+01
4.720000000000000000e+02	9.521788865640260724e+01
4.730000000000000000e+02	9.919342546064027033e+01
4.740000000000000000e+02	1.033135993901234428e+02
4.750000000000000000e+02	1.075826803519067454e+02
4.760000000000000000e+02	1.120050209506218835e+02
4.770000000000000000e+02	1.165850562347381469e+02
4.780000000000000000e+02	1.213273033454653245e+02
4.790000000000000000e+02	1.262363610647396115e+02
4.800000000000000000e+02	1.313169092587398268e+02
4.810000000000000000e+02	1.365737082133874196e+02
4.820000000000000000e+02	1.420115978583120011e+02
4.830000000000000000e+02	1.476354968758610084e+02
4.840000000000000000e+02	1.534504016924230996e+02
4.850000000000000000e+02	1.594613853544972528e+02
4.860000000000000000e+02	1.656735963286138258e+02
4.870000000000000000e+02	1.720922575044625660e+02
4.880000000000000000e+02	1.787226671251493428e+02
4.890000000000000000e+02	1.855702113230332202e+02
4.900000000000000000e+02	1.926404379775805182e+02
4.910000000000000000e+02	1.999394254124788972e+02
4.920000000000000000e+02	2.074754468928194626e+02
4.930000000000000000e+02	2.152658361897260590e+02
4.940000000000000000e+02	2.233628751507748973e+02
4.950000000000000000e+02	2.319428719697750978e+02
4.960000000000000000e+02	2.415851034480952535e+02
4.970000000000000000e+02	2.540637316013809368e+02
4.980000000000000000e+02	2.743755748919406301e+02
4.990000000000000000e+02	3.153887023519354216e+02
5.000000000000000000e+02	4.072767460664556438e+02
5.010000000000000000e+02	6.141565067620957734e+02
5.020000000000000000e+02	1.058696177939485551e+03
5.030000000000000000e+02	1.950153719265500285e+03
5.040000000000000000e+02	3.601758273629411633e+03
5.050000000000000000e+02	6.412775493797924355e+03
5.060000000000000000e+02	1.078771934784072801e+04
5.070000000000000000e+02	1.698141071887205908e+04
5.080000000000000000e+02	2.489871081418309404e+04
5.090000000000000000e+02	3.392842637216203730e+04
5.100000000000000000e+02	4.291873146498622373e+04
5.110000000000000000e+02	5.037091038948789355e+04
5.120000000000000000e+02	5.483317526325436484e+04
5.130000000000000000e+02	5.535994327998155495e+04
5.140000000000000000e+02	5.183877284890101873e+04
5.150000000000000000e+02	4.503044636740384885e+04
5.160000000000000000e+02	3.630267670352783898e+04
5.170000000000000000e+02	2.718484054250935878e+04
5.180000000000000000e+02	1.894152804236315205e+04
5.190000000000000000e+02	1.232297669485260849e+04
5.200000000000000000e+02	7.540091940172067552e+03
5.210000000000000000e+02	4.405557681541199599e+03
5.220000000000000000e+02	2.534826985494223209e+03
5.230000000000000000e+02	1.516928047912854936e+03
5.240000000000000000e+02	1.013702060800072786e+03
5.250000000000000000e+02	7.909374049724508495e+02
5.260000000000000000e+02	7.070943790266197766e+02
5.270000000000000000e+02	6.861520172802746629e+02
5.280000000000000000e+02	6.914253890929769568e+02
5.290000000000000000e+02	7.068979874744726430e+02
5.300000000000000000e+02	7.262135664949006468e+02
5.310000000000000000e+02	7.470724496066400206e+02
5.320000000000000000e+02	7.687155263266081420e+02
5.330000000000000000e+02	7.909152272045746486e+02
5.340000000000000000e+02	8.136111161251408248e+02
5.350000000000000000e+02	8.367907043739595565e+02
5.360000000000000000e+02	8.604539994730080252e+02
5.370000000000000000e+02	8.846038823918254366e+02
5.380000000000000000e+02	9.092437144446215598e+02
5.390000000000000000e+02	9.343767869214850634e+02
5.400000000000000000e+02	9.600061995409233759e+02
5.410000000000000000e+02	9.861348302023812948e+02
5.420000000000000000e+02	1.012765322557551372e+03
5.430000000000000000e+02	1.039900076783745362e+03
5.440000000000000000e+02	1.067541240904133929e+03
5.450000000000000000e+02	1.095690702220492767e+03
5.460000000000000000e+02	1.124350078801639029e+03
5.470000000000000000e+02	1.153520711029779477e+03
5.480000000000000000e+02	1.183203653215619170e+03
5.490000000000000000e+02	1.213399665294402894e+03
5.500000000000000000e+02	1.244109204615398312e+03
5.510000000000000000e+02	1.275332417837527601e+03
5.520000000000000000e+02	1.307069132944031935e+03
5.530000000000000000e+02	1.339318851389203246e+03
5.540000000000000000e+02	1.372080740390350456e+03
5.550000000000000000e+02	1.405353625378289507e+03
5.560000000000000000e+02	1.439135982619735387e+03
5.570000000000000000e+02	1.473425932025067368e+03
5.580000000000000000e+02	1.508221230154966861e+03
5.590000000000000000e+02	1.543519263439499355e+03
5.600000000000000000e+02	1.579317041623192381e+03
5.610000000000000000e+02	1.615611191449669377e+03
5.620000000000000000e+02	1.652397950599373189e+03
5.630000000000000000e+02	1.689673161893829047e+03
5.640000000000000000e+02	1.727432267779866152e+03
5.650000000000000000e+02	1.765670305107055583e+03
5.660000000000000000e+02	1.804381900211547645e+03
5.670000000000000000e+02	1.843561264319303973e+03
5.680000000000000000e+02	1.883202189281560550e+03
5.690000000000000000e+02	1.923298043655140418e+03
5.700000000000000000e+02	1.963841769140025463e+03
5.710000000000000000e+02	2.004825877386320144e+03
5.720000000000000000e+02	2.046242447182477690e+03
5.730000000000000000e+02	2.088083122036343866e+03
5.740000000000000000e+02	2.130339108160248543e+03
5.750000000000000000e+02	2.173001172871006474e+03
5.760000000000000000e+02	2.216059643415323535e+03
5.770000000000000000e+02	2.259504406230678796e+03
5.780000000000000000e+02	2.303324906651332185e+03
5.790000000000000000e+02	2.347510149068643841e+03
5.800000000000000000e+02	2.392048697554406772e+03
5.810000000000000000e+02	2.436928676955402807e+03
5.820000000000000000e+02	2.482137774466831161e+03
5.830000000000000000e+02	2.527663241691745952e+03
5.840000000000000000e+02	2.573491897193033310e+03
5.850000000000000000e+02	2.619610129543868425e+03
5.860000000000000000e+02	2.666003900881991285e+03
5.870000000000000000e+02	2.712658750972477719e+03
5.880000000000000000e+02	2.759559801783042076e+03
5.890000000000000000e+02	2.806691762575226221e+03
5.900000000000000000e+02	2.854038935514136483e+03
5.910000000000000000e+02	2.901585221798678504e+03
5.920000000000000000e+02	2.949314128313515994e+03
5.930000000000000000e+02	2.997208774803240885e+03
5.940000000000000000e+02	3.045251901568490666e+03
5.950000000000000000e+02	3.093425877682970167e+03
5.960000000000000000e+02	3.141712709729580183e+03
5.970000000000000000e+02	3.190094051053047679e+03
5.980000000000000000e+02	3.238551211525683357e+03
5.990000000000000000e+02	3.287065167822053809e+03
6.000000000000000000e+02	3.335616574197600130e+03
6.010000000000000000e+02	3.384185773765368140e+03
6.020000000000000000e+02	3.432752810264250002e+03
6.030000000000000000e+02	3.481297440311293030e+03
6.040000000000000000e+02	3.529799146129826113e+03
6.050000000000000000e+02	3.578237148744348360e+03
6.060000000000000000e+02	3.626590421632304697e+03
6.070000000000000000e+02	3.674837704822073647e+03
6.080000000000000000e+02	3.722957519425700411e+03
6.090000000000000000e+02	3.770928182594116606e+03
6.100000000000000000e+02	3.818727822881797692e+03
6.110000000000000000e+02	3.866334396007056057e+03
6.120000000000000000e+02	3.913725700993416012e+03
6.130000000000000000e+02	3.960879396676745273e+03
6.140000000000000000e+02	4.007773018562137622e+03
6.150000000000000000e+02	4.054383996013798424e+03
6.160000000000000000e+02	4.100689669760513425e+03
6.170000000000000000e+02	4.146667309698611461e+03
6.180000000000000000e+02	4.192294132973686828e+03
6.190000000000000000e+02	4.237547322321722277e+03
6.200000000000000000e+02	4.282404044649664684e+03
6.210000000000000000e+02	4.326841469834926102e+03
6.220000000000000000e+02	4.370836789722750837e+03
6.230000000000000000e+02	4.414367237299862609e+03
6.240000000000000000e+02	4.457410106022353830e+03
6.250000000000000000e+02	4.499942769275275168e+03
6.260000000000000000e+02	4.541942699941025239e+03
6.270000000000000000e+02	4.583387490053215515e+03
6.280000000000000000e+02	4.624254870512349953e+03
6.290000000000000000e+02	4.664522730839348696e+03
6.300000000000000000e+02	4.704169138942664176e+03
6.310000000000000000e+02	4.743172360874497826e+03
6.320000000000000000e+02	4.781510880551437367e+03
6.330000000000000000e+02	4.819163419414649070e+03
6.340000000000000000e+02	4.856108956004676656e+03
6.350000000000000000e+02	4.892326745425776608e+03
6.360000000000000000e+02	4.927796338674708750e+03
6.370000000000000000e+02	4.962497601808895524e+03
6.380000000000000000e+02	4.996410734928897909e+03
6.390000000000000000e+02	5.029516290950255097e+03
6.400000000000000000e+02	5.061795194139854175e+03
6.410000000000000000e+02	5.093228758392162490e+03
6.420000000000000000e+02	5.123798705220877309e+03
6.430000000000000000e+02	5.153487181441791108e+03
6.440000000000000000e+02	5.182276776522970067e+03
6.450000000000000000e+02	5.210150539578687130e+03
6.460000000000000000e+02	5.237091995983897505e+03
6.470000000000000000e+02	5.263085163586525596e+03
6.480000000000000000e+02	5.288114568495208914e+03
6.490000000000000000e+02	5.312165260420720188e+03
6.500000000000000000e+02	5.335222827549760950e+03
6.510000000000000000e+02	5.357273410930450154e+03
6.520000000000000000e+02	5.378303718349395240e+03
6.530000000000000000e+02	5.398301037680910667e+03
6.540000000000000000e+02	5.417253249689628319e+03
6.550000000000000000e+02	5.435148840268435379e+03
6.560000000000000000e+02	5.451976912094465661e+03
6.570000000000000000e+02	5.467727195686615232e+03
6.580000000000000000e+02	5.482390059848879901e+03
6.590000000000000000e+02	5.495956521484653422e+03
6.600000000000000000e+02	5.508418254767978397e+03
6.610000000000000000e+02	5.519767599658653126e+03
6.620000000000000000e+02	5.529997569748995375e+03
6.630000000000000000e+02	5.539101859431017147e+03
6.640000000000000000e+02	5.547074850373711342e+03
6.650000000000000000e+02	5.553911617301138904e+03
6.660000000000000000e+02	5.559607933063002747e+03
6.670000000000000000e+02	5.564160272990391604e+03
6.680000000000000000e+02	5.567565818530413708e+03
6.690000000000000000e+02	5.569822460154485270e+03
6.700000000000000000e+02	5.570928799536046427e+03
6.710000000000000000e+02	5.570884150994588708e+03
6.720000000000000000e+02	5.569688542203878569e+03
6.730000000000000000e+02	5.567342714163376513e+03
6.740000000000000000e+02	5.563848120432878204e+03
6.750000000000000000e+02	5.559206925631482591e+03
6.760000000000000000e+02	5.553422003203069835e+03
6.770000000000000000e+02	5.546496932451512293e+03
6.780000000000000000e+02	5.538435994849892268e+03
6.790000000000000000e+02	5.529244169629066164e+03
6.800000000000000000e+02	5.518927128651932435e+03
6.810000000000000000e+02	5.507491230580793854e+03
6.820000000000000000e+02	5.494943514346203301e+03
6.830000000000000000e+02	5.481291691926689055e+03
6.840000000000000000e+02	5.466544140449729639e+03
6.850000000000000000e+02	5.450709893625301447e+03
6.860000000000000000e+02	5.433798632524254572e+03
6.870000000000000000e+02	5.415820675714709978e+03
6.880000000000000000e+02	5.396786968770534259e+03
6.890000000000000000e+02	5.376709073166818598e+03
6.900000000000000000e+02	5.355599154578148955e+03
6.910000000000000000e+02	5.333469970596226631e+03
6.920000000000000000e+02	5.310334857884204212e+03
6.930000000000000000e+02	5.286207718785838551e+03
6.940000000000000000e+02	5.261103007408270059e+03
6.950000000000000000e+02	5.235035715197934223e+03
6.960000000000000000e+02	5.208021356029733397e+03
6.970000000000000000e+02	5.180075950830230795e+03
6.980000000000000000e+02	5.151216011756176158e+03
6.990000000000000000e+02	5.121458525950226431e+03
7.000000000000000000e+02	5.090820938896202279e+03
7.010000000000000000e+02	5.059321137396690574e+03
7.020000000000000000e+02	5.026977432196204063e+03
7.030000000000000000e+02	4.993808540273509607e+03
7.040000000000000000e+02	4.959833566827028335e+03
7.050000000000000000e+02	4.925071986977543020e+03
7.060000000000000000e+02	4.889543627212681713e+03
7.070000000000000000e+02	4.853268646597844054e+03
7.080000000000000000e+02	4.816267517778428555e+03
7.090000000000000000e+02	4.778561007798311948e+03
7.100000000000000000e+02	4.740170158759650803e+03
7.110000000000000000e+02	4.701116268349073835e+03
7.120000000000000000e+02	4.661420870255366935e+03
7.130000000000000000e+02	4.621105714503699346e+03
7.140000000000000000e+02	4.580192747731336567e+03
7.150000000000000000e+02	4.538704093429699242e+03
7.160000000000000000e+02	4.496662032177428046e+03
7.170000000000000000e+02	4.454088981888930903e+03
7.180000000000000000e+02	4.411007478102646019e+03
7.190000000000000000e+02	4.367440154332960446e+03
7.200000000000000000e+02	4.323409722509441963e+03
7.210000000000000000e+02	4.278938953526635487e+03
7.220000000000000000e+02	4.234050657927356042e+03
7.230000000000000000e+02	4.188767666741921857e+03
7.240000000000000000e+02	4.143112812505375587e+03
7.250000000000000000e+02	4.097108910474220465e+03
7.260000000000000000e+02	4.050778740063689838e+03
7.270000000000000000e+02	4.004145026526046422e+03
7.280000000000000000e+02	3.957230422889794227e+03
7.290000000000000000e+02	3.910057492179137171e+03
7.300000000000000000e+02	3.862648689932349043e+03
7.310000000000000000e+02	3.815026347037108735e+03
7.320000000000000000e+02	3.767212652900161174e+03
7.330000000000000000e+02	3.719229638967990923e+03
7.340000000000000000e+02	3.671099162614475972e+03
7.350000000000000000e+02	3.622842891410776247e+03
7.360000000000000000e+02	3.574482287791946874e+03
7.370000000000000000e+02	3.526038594134044160e+03
7.380000000000000000e+02	3.477532818254689118e+03
7.390000000000000000e+02	3.428985719349290775e+03
7.400000000000000000e+02	3.380417794374344339e+03
7.410000000000000000e+02	3.331849264888409380e+03
7.420000000000000000e+02	3.283300064360582837e+03
7.430000000000000000e+02	3.234789825955453580e+03
7.440000000000000000e+02	3.186337870802741691e+03
7.450000000000000000e+02	3.137963196758973936e+03
7.460000000000000000e+02	3.089684467667770605e+03
7.470000000000000000e+02	3.041520003124478990e+03
7.480000000000000000e+02	2.993487768750084797e+03
7.490000000000000000e+02	2.945605366978538768e+03
7.500000000000000000e+02	2.897890028360814995e+03
7.510000000000000000e+02	2.850358603388243409e+03
7.520000000000000000e+02	2.803027554836857234e+03
7.530000000000000000e+02	2.755912950633735363e+03
7.540000000000000000e+02	2.709030457245540674e+03
7.550000000000000000e+02	2.662395333588718586e+03
7.560000000000000000e+02	2.616022425460064369e+03
7.570000000000000000e+02	2.569926160485660148e+03
7.580000000000000000e+02	2.524120543585461746e+03
7.590000000000000000e+02	2.478619152950123862e+03
7.600000000000000000e+02	2.433435136525990401e+03
7.610000000000000000e+02	2.388581209003500589e+03
7.620000000000000000e+02	2.344069649303642564e+03
7.630000000000000000e+02	2.299912298556465885e+03
7.640000000000000000e+02	2.256120558565053216e+03
7.650000000000000000e+02	2.212705390747810725e+03
7.660000000000000000e+02	2.169677315551349693e+03
7.670000000000000000e+02	2.127046412325728397e+03
7.680000000000000000e+02	2.084822319653313116e+03
7.690000000000000000e+02	2.043014236122024840e+03
7.700000000000000000e+02	2.001630921533305354e+03
7.710000000000000000e+02	1.960680698534677731e+03
7.720000000000000000e+02	1.920171454666399313e+03
7.730000000000000000e+02	1.880110644811293241e+03
7.740000000000000000e+02	1.840505294036516034e+03
7.750000000000000000e+02	1.801362000815679949e+03
7.760000000000000000e+02	1.762686940619434608e+03
7.770000000000000000e+02	1.724485869862349091e+03
7.780000000000000000e+02	1.686764130193680785e+03
7.790000000000000000e+02	1.649526653119380171e+03
7.800000000000000000e+02	1.612777964942490598e+03
7.810000000000000000e+02	1.576522192008927732e+03
7.820000000000000000e+02	1.540763066245456685e+03
7.830000000000000000e+02	1.505503930976582296e+03
7.840000000000000000e+02	1.470747747006945474e+03
7.850000000000000000e+02	1.436497098955755973e+03
7.860000000000000000e+02	1.402754201829728800e+03
7.870000000000000000e+02	1.369520907820975026e+03
7.880000000000000000e+02	1.336798713316269414e+03
7.890000000000000000e+02	1.304588766104152228e+03
7.900000000000000000e+02	1.272891872766352435e+03
7.910000000000000000e+02	1.241708506240074030e+03
7.920000000000000000e+02	1.211038813537768419e+03
7.930000000000000000e+02	1.180882623611118333e+03
7.940000000000000000e+02	1.151239455346074237e+03
7.950000000000000000e+02	1.122108525675912233e+03
7.960000000000000000e+02	1.093488757799453879e+03
7.970000000000000000e+02	1.065378789491746375e+03
7.980000000000000000e+02	1.037776981494689835e+03
7.990000000000000000e+02	1.010681425975316756e+03
8.000000000000000000e+02	9.840899550396213726e+02
8.010000000000000000e+02	9.580001492900993298e+02
8.020000000000000000e+02	9.324093464153779678e+02
8.030000000000000000e+02	9.073146498005922922e+02
8.040000000000000000e+02	8.827129371474234176e+02
8.050000000000000000e+02	8.586008690930057128e+02
8.060000000000000000e+02	8.349748978171853651e+02
8.070000000000000000e+02	8.118312756279334508e+02
8.080000000000000000e+02	7.891660635150062717e+02
8.090000000000000000e+02	7.669751396622768880e+02
8.100000000000000000e+02	7.452542079094741894e+02
8.110000000000000000e+02	7.239988061544077027e+02
8.120000000000000000e+02	7.032043146870738610e+02
8.130000000000000000e+02	6.828659644474032575e+02
8.140000000000000000e+02	6.629788451987228655e+02
8.150000000000000000e+02	6.435379136093833949e+02
8.160000000000000000e+02	6.245380012353250549e+02
8.170000000000000000e+02	6.059738223967226531e+02
8.180000000000000000e+02	5.878399819421965731e+02
8.190000000000000000e+02	5.701309828944249603e+02
8.200000000000000000e+02	5.528412339713490837e+02
8.210000000000000000e+02	5.359650569775141093e+02
8.220000000000000000e+02	5.194966940604281262e+02
8.230000000000000000e+02	5.034303148271849295e+02
8.240000000000000000e+02	4.877600233169191597e+02
8.250000000000000000e+02	4.724798648250247197e+02
8.260000000000000000e+02	4.575838325753852018e+02
8.270000000000000000e+02	4.430658742372128813e+02
8.280000000000000000e+02	4.289198982834067237e+02
8.290000000000000000e+02	4.151397801876769904e+02
8.300000000000000000e+02	4.017193684579830233e+02
8.310000000000000000e+02	3.886524905041630973e+02
8.320000000000000000e+02	3.759329583379161477e+02
8.330000000000000000e+02	3.635545741036123673e+02
8.340000000000000000e+02	3.515111354386873472e+02
8.350000000000000000e+02	3.397964406626641107e+02
8.360000000000000000e+02	3.284042937941173363e+02
8.370000000000000000e+02	3.173285093951671456e+02
8.380000000000000000e+02	3.065629172433429517e+02
8.390000000000000000e+02	2.961013668309146851e+02
8.400000000000000000e+02	2.859377316920218846e+02
8.410000000000000000e+02	2.760659135581778969e+02
8.420000000000000000e+02	2.664798463429351045e+02
8.430000000000000000e+02	2.571734999567280511e+02
8.440000000000000000e+02	2.481408839531043498e+02
8.450000000000000000e+02	2.393760510077623280e+02
8.460000000000000000e+02	2.308731002319931918e+02
8.470000000000000000e+02	2.226261803223125639e+02
8.480000000000000000e+02	2.146294925482285407e+02
8.490000000000000000e+02	2.068772935802619770e+02
8.500000000000000000e+02	1.993638981604788114e+02
8.510000000000000000e+02	1.920836816179443360e+02
8.520000000000000000e+02	1.850310822316347696e+02
8.530000000000000000e+02	1.782006034434743071e+02
8.540000000000000000e+02	1.715868159242742479e+02
8.550000000000000000e+02	1.651843594954631840e+02
8.560000000000000000e+02	1.589879449095934945e+02
8.570000000000000000e+02	1.529923554926969587e+02
8.580000000000000000e+02	1.471924486516500394e+02
8.590000000000000000e+02	1.415831572497761499e+02
8.600000000000000000e+02	1.361594908539817936e+02
8.610000000000000000e+02	1.309165368567794303e+02
8.620000000000000000e+02	1.258494614766011779e+02
8.630000000000000000e+02	1.209535106398482895e+02
8.640000000000000000e+02	1.162240107481591025e+02
8.650000000000000000e+02	1.116563693344026547e+02
8.660000000000000000e+02	1.072460756109322659e+02
8.670000000000000000e+02	1.029887009136432710e+02
8.680000000000000000e+02	9.887989904539065833e+01
8.690000000000000000e+02	9.491540652232397690e+01
8.700000000000000000e+02	9.109104272669354430e+01
8.710000000000000000e+02	8.740270996967454664e+01
8.720000000000000000e+02	8.384639346773877833e+01
8.730000000000000000e+02	8.041816123608562350e+01
8.740000000000000000e+02	7.711416390262168363e+01
8.750000000000000000e+02	7.393063444594422151e+01
8.760000000000000000e+02	7.086388786075703194e+01
8.770000000000000000e+02	6.791032075410211633e+01
8.780000000000000000e+02	6.506641087575691529e+01
8.790000000000000000e+02	6.232871658609467147e+01
8.800000000000000000e+02	5.969387626466165386e+01
8.810000000000000000e+02	5.715860766267036297e+01
8.820000000000000000e+02	5.471970720255389153e+01
8.830000000000000000e+02	5.237404922766952353e+01
8.840000000000000000e+02	5.011858520517775872e+01
8.850000000000000000e+02	4.795034288506148101e+01
8.860000000000000000e+02	4.586642541818578422e+01
8.870000000000000000e+02	4.386401043623062890e+01
8.880000000000000000e+02	4.194034909626206797e+01
8.890000000000000000e+02	4.009276509263625599e+01
8.900000000000000000e+02	3.831865363886045373e+01
8.910000000000000000e+02	3.661548042196267971e+01
8.920000000000000000e+02	3.498078053184789837e+01
8.930000000000000000e+02	3.341215736804481651e+01
8.940000000000000000e+02	3.190728152617342062e+01
8.950000000000000000e+02	3.046388966638729201e+01
8.960000000000000000e+02	2.907978336596964297e+01
8.970000000000000000e+02	2.775282795818700876e+01
8.980000000000000000e+02	2.648095135942829614e+01
8.990000000000000000e+02	2.526214288658202634e+01
9.000000000000000000e+02	2.409445206652929627e+01
9.010000000000000000e+02	2.297598743955501277e+01
9.020000000000000000e+02	2.190491535840645909e+01
9.030000000000000000e+02	2.087945878465399119e+01
9.040000000000000000e+02	1.989789608393602904e+01
9.050000000000000000e+02	1.895855982159866571e+01
9.060000000000000000e+02	1.805983556016892777e+01
9.070000000000000000e+02	1.720016066003073263e+01
9.080000000000000000e+02	1.637802308460343426e+01
9.090000000000000000e+02	1.559196021125514520e+01
9.100000000000000000e+02	1.484055764911654052e+01
9.110000000000000000e+02	1.412244806489493953e+01
9.120000000000000000e+02	1.343631001772543421e+01
9.130000000000000000e+02	1.278086680403212760e+01
9.140000000000000000e+02	1.215488531331244637e+01
9.150000000000000000e+02	1.155717489569719270e+01
9.160000000000000000e+02	1.098658624208103518e+01
9.170000000000000000e+02	1.044201027756170497e+01
9.180000000000000000e+02	9.922377068871027106e+00
9.190000000000000000e+02	9.426654746427518106e+00
9.200000000000000000e+02	8.953848441588748486e+00
9.210000000000000000e+02	8.502999239631089168e+00
9.220000000000000000e+02	8.073183148936450948e+00
9.230000000000000000e+02	7.663510086818509315e+00
9.240000000000000000e+02	7.273122882375817611e+00
9.250000000000000000e+02	6.901196296715509604e+00
9.260000000000000000e+02	6.546936060849750660e+00
9.270000000000000000e+02	6.209577931526469641e+00
9.280000000000000000e+02	5.888386765217550334e+00
9.290000000000000000e+02	5.582655610450451000e+00
9.300000000000000000e+02	5.291704818634053176e+00
9.310000000000000000e+02	5.014881173495457034e+00
9.320000000000000000e+02	4.751557039212357836e+00
9.330000000000000000e+02	4.501129527294892796e+00
9.340000000000000000e+02	4.263019682241558250e+00
9.350000000000000000e+02	4.036671685966076062e+00
9.360000000000000000e+02	3.821552080966020171e+00
9.370000000000000000e+02	3.617149012178875189e+00
9.380000000000000000e+02	3.422971487448054351e+00
9.390000000000000000e+02	3.238548656499139700e+00
9.400000000000000000e+02	3.063429108306003457e+00
9.410000000000000000e+02	2.897180186706998395e+00
9.420000000000000000e+02	2.739387324113273792e+00
9.430000000000000000e+02	2.589653393134275117e+00
9.440000000000000000e+02	2.447598075929885653e+00
9.450000000000000000e+02	2.312857251084006194e+00
9.460000000000000000e+02	2.185082397780921504e+00
9.470000000000000000e+02	2.063940017053504938e+00
9.480000000000000000e+02	1.949111069860953060e+00
9.490000000000000000e+02	1.840290431743458077e+00
9.500000000000000000e+02	1.737186363791922261e+00
9.510000000000000000e+02	1.639519999662373939e+00
9.520000000000000000e+02	1.547024848357342330e+00
9.530000000000000000e+02	1.459446312489769193e+00
9.540000000000000000e+02	1.376541221739251197e+00
9.550000000000000000e+02	1.298077381205406944e+00
9.560000000000000000e+02	1.223833134358945696e+00
9.570000000000000000e+02	1.153596940287429096e+00
9.580000000000000000e+02	1.087166964929958679e+00
9.590000000000000000e+02	1.024350685992733156e+00
9.600000000000000000e+02	9.649645112359772625e-01
9.610000000000000000e+02	9.088334098216532819e-01
9.620000000000000000e+02	8.557905564109971053e-01
9.630000000000000000e+02	8.056769877010178105e-01
9.640000000000000000e+02	7.583412710896845210e-01
9.650000000000000000e+02	7.136391851605419223e-01
9.660000000000000000e+02	6.714334116790817708e-01
9.670000000000000000e+02	6.315932387949549920e-01
9.680000000000000000e+02	5.939942751465210335e-01
9.690000000000000000e+02	5.585181745667657793e-01
9.700000000000000000e+02	5.250523710926061627e-01
9.710000000000000000e+02	4.934898239828538480e-01
9.720000000000000000e+02	4.637287724536531264e-01
9.730000000000000000e+02	4.356724998439799879e-01
9.740000000000000000e+02	4.092291069278272686e-01
9.750000000000000000e+02	3.843112940939402700e-01
9.760000000000000000e+02	3.608361521183780507e-01
9.770000000000000000e+02	3.387249612597982851e-01
9.780000000000000000e+02	3.179029984120962382e-01
9.790000000000000000e+02	2.982993520539363730e-01
9.800000000000000000e+02	2.798467447397066099e-01
9.810000000000000000e+02	2.624813628815499400e-01
9.820000000000000000e+02	2.461426935773170233e-01
9.830000000000000000e+02	2.307733682445465562e-01
9.840000000000000000e+02	2.163190128259289691e-01
9.850000000000000000e+02	2.027281043370534053e-01
9.860000000000000000e+02	1.899518335326655649e-01
9.870000000000000000e+02	1.779439734730732248e-01
9.880000000000000000e+02	1.666607537777836379e-01
9.890000000000000000e+02	1.560607403588811504e-01
9.900000000000000000e+02	1.461047204320840287e-01
9.910000000000000000e+02	1.367555926088193652e-01
9.920000000000000000e+02	1.279782618780347936e-01
9.930000000000000000e+02	1.197395392918033791e-01
9.940000000000000000e+02	1.120080461740738387e-01
9.950000000000000000e+02	1.047541226771699086e-01
9.960000000000000000e+02	9.794974051582802654e-02
9.970000000000000000e+02	9.156841971369317212e-02
9.980000000000000000e+02	8.558514920225765432e-02
9.990000000000000000e+02	7.997631111720790442e-02
1.000000000000000000e+03	7.471960864206983466e-02
