4.410000000000000000e+02	1.312566481523509765e+01
4.420000000000000000e+02	1.381916498072443567e+01
4.430000000000000000e+02	1.454610882451196296e+01
4.440000000000000000e+02	1.530792767346276939e+01
4.450000000000000000e+02	1.610610438544441081e+01
4.460000000000000000e+02	1.694217471053755375e+01
4.470000000000000000e+02	1.781772866374842579e+01
4.480000000000000000e+02	1.873441190796587819e+01
4.490000000000000000e+02	1.969392714582429349e+01
4.500000000000000000e+02	2.069803551905033956e+01
4.510000000000000000e+02	2.174855801378658526e+01
4.520000000000000000e+02	2.284737687029778996e+01
4.530000000000000000e+02	2.399643699537768882e+01
4.540000000000000000e+02	2.519774737568403467e+01
4.550000000000000000e+02	2.645338249013888188e+01
4.560000000000000000e+02	2.776548371943804838e+01
4.570000000000000000e+02	2.913626075062039789e+01
4.580000000000000000e+02	3.056799297455336983e+01
4.590000000000000000e+02	3.206303087409534669e+01
4.600000000000000000e+02	3.362379740059925837e+01
4.610000000000000000e+02	3.525278933632567657e+01
4.620000000000000000e+02	3.695257864023622574e+01
4.630000000000000000e+02	3.872581377454119433e+01
4.640000000000000000e+02	4.057522100927770481e+01
4.650000000000000000e+02	4.250360570209793565e+01
4.660000000000000000e+02	4.451385355035112212e+01
4.670000000000000000e+02	4.660893181244482264e+01
4.680000000000000000e+02	4.879189049537868073e+01
4.690000000000000000e+02	5.106586350524766260e+01
4.700000000000000000e+02	5.343406975741966392e+01
4.710000000000000000e+02	5.589981424300151502e+01
4.720000000000000000e+02	5.846648904811751635e+01
4.730000000000000000e+02	6.113757432243775725e+01
4.740000000000000000e+02	6.391663919330789412e+01
4.750000000000000000e+02	6.680734262175037941e+01
4.760000000000000000e+02	6.981343419652787929e+01
4.770000000000000000e+02	7.293875486238276551e+01
4.780000000000000000e+02	7.618723757849373612e+01
4.790000000000000000e+02	7.956290790312395700e+01
4.800000000000000000e+02	8.306988450036710958e+01
4.810000000000000000e+02	8.671237956484068832e+01
4.820000000000000000e+02	9.049469916011997839e+01
4.830000000000000000e+02	9.442124346667091572e+01
4.840000000000000000e+02	9.849650693513068234e+01
4.850000000000000000e+02	1.027250783419133313e+02
4.860000000000000000e+02	1.071116407533768040e+02
4.870000000000000000e+02	1.116609714721589341e+02
4.880000000000000000e+02	1.163779424862686511e+02
4.890000000000000000e+02	1.212675246458828155e+02
4.900000000000000000e+02	1.263348136945826496e+02
4.910000000000000000e+02	1.315851709083721346e+02
4.920000000000000000e+02	1.370249098545959328e+02
4.930000000000000000e+02	1.426643500101395432e+02
4.940000000000000000e+02	1.485301823060337938e+02
4.950000000000000000e+02	1.547109920753500489e+02
4.960000000000000000e+02	1.615092022568247501e+02
4.970000000000000000e+02	1.698991760743159602e+02
4.980000000000000000e+02	1.827685502559503163e+02
4.990000000000000000e+02	2.079198521881722286e+02
5.000000000000000000e+02	2.644780784593393719e+02
5.010000000000000000e+02	3.947553592572688785e+02
5.020000000000000000e+02	6.826924037200161592e+02
5.030000000000000000e+02	1.276160290205098363e+03
5.040000000000000000e+02	2.402793679056270776e+03
5.050000000000000000e+02	4.359806859989704208e+03
5.060000000000000000e+02	7.454558780045364074e+03
5.070000000000000000e+02	1.188471703702200648e+04
5.080000000000000000e+02	1.757991039855243434e+04
5.090000000000000000e+02	2.406999807525594588e+04
5.100000000000000000e+02	3.046921855384701848e+04
5.110000000000000000e+02	3.563867292550698767e+04
5.120000000000000000e+02	3.850699453185316816e+04
5.130000000000000000e+02	3.843089713812380069e+04
5.140000000000000000e+02	3.543041914343216922e+04
5.150000000000000000e+02	3.018141981239218876e+04
5.160000000000000000e+02	2.376916347120123464e+04
5.170000000000000000e+02	1.732564897387295059e+04
5.180000000000000000e+02	1.171558331979532522e+04
5.190000000000000000e+02	7.384468986643324570e+03
5.200000000000000000e+02	4.383260962163153636e+03
5.210000000000000000e+02	2.503963289767544666e+03
5.220000000000000000e+02	1.437143808712898135e+03
5.230000000000000000e+02	8.885234460137180577e+02
5.240000000000000000e+02	6.350997679118261203e+02
5.250000000000000000e+02	5.332097659286091584e+02
5.260000000000000000e+02	5.018844724012176925e+02
5.270000000000000000e+02	5.005773190811072482e+02
5.280000000000000000e+02	5.110775106560079735e+02
5.290000000000000000e+02	5.260048048656199171e+02
5.300000000000000000e+02	5.426502497893712871e+02
5.310000000000000000e+02	5.601123650058727890e+02
5.320000000000000000e+02	5.781207230945501578e+02
5.330000000000000000e+02	5.966044963462804844e+02
5.340000000000000000e+02	6.155501883736538957e+02
5.350000000000000000e+02	6.349592435371157535e+02
5.360000000000000000e+02	6.548365880017092877e+02
5.370000000000000000e+02	6.751878076341437236e+02
5.380000000000000000e+02	6.960185089623067825e+02
5.390000000000000000e+02	7.173341811158791188e+02
5.400000000000000000e+02	7.391401623399808614e+02
5.410000000000000000e+02	7.614416263426281830e+02
5.420000000000000000e+02	7.842435720079304247e+02
5.430000000000000000e+02	8.075508135651904240e+02
5.440000000000000000e+02	8.313679707518476789e+02
5.450000000000000000e+02	8.556994589109939398e+02
5.460000000000000000e+02	8.805494790250033930e+02
5.470000000000000000e+02	9.059220076955240302e+02
5.480000000000000000e+02	9.318207870815141405e+02
5.490000000000000000e+02	9.582493148075650424e+02
5.500000000000000000e+02	9.852108338551372526e+02
5.510000000000000000e+02	1.012708322449747243e+03
5.520000000000000000e+02	1.040744483957510056e+03
5.530000000000000000e+02	1.069321736804808324e+03
5.540000000000000000e+02	1.098442204435209305e+03
5.550000000000000000e+02	1.128107705318087710e+03
5.560000000000000000e+02	1.158319743023725778e+03
5.570000000000000000e+02	1.189079496379963757e+03
5.580000000000000000e+02	1.220387809725757961e+03
5.590000000000000000e+02	1.252245183277264459e+03
5.600000000000000000e+02	1.284651763622304316e+03
5.610000000000000000e+02	1.317607334359288870e+03
5.620000000000000000e+02	1.351111306896879341e+03
5.630000000000000000e+02	1.385162711430828722e+03
5.640000000000000000e+02	1.419760188114595621e+03
5.650000000000000000e+02	1.454901978440450875e+03
5.660000000000000000e+02	1.490585916847882345e+03
5.670000000000000000e+02	1.526809422576187899e+03
5.680000000000000000e+02	1.563569491778157044e+03
5.690000000000000000e+02	1.600862689911790085e+03
5.700000000000000000e+02	1.638685144426946636e+03
5.710000000000000000e+02	1.677032537763793243e+03
5.720000000000000000e+02	1.715900100679819843e+03
5.730000000000000000e+02	1.755282605922100174e+03
5.740000000000000000e+02	1.795174362261297119e+03
5.750000000000000000e+02	1.835569208903772051e+03
5.760000000000000000e+02	1.876460510297915562e+03
5.770000000000000000e+02	1.917841151350588916e+03
5.780000000000000000e+02	1.959703533069276091e+03
5.790000000000000000e+02	2.002039568645244117e+03
5.800000000000000000e+02	2.044840679992656078e+03
5.810000000000000000e+02	2.088097794758197779e+03
5.820000000000000000e+02	2.131801343815371638e+03
5.830000000000000000e+02	2.175941259257150705e+03
5.840000000000000000e+02	2.220506972900220262e+03
5.850000000000000000e+02	2.265487415313490146e+03
5.860000000000000000e+02	2.310871015383040231e+03
5.870000000000000000e+02	2.356645700425056475e+03
5.880000000000000000e+02	2.402798896857710133e+03
5.890000000000000000e+02	2.449317531442274685e+03
5.900000000000000000e+02	2.496188033103113867e+03
5.910000000000000000e+02	2.543396335335438835e+03
5.920000000000000000e+02	2.590927879209024923e+03
5.930000000000000000e+02	2.638767616975268993e+03
5.940000000000000000e+02	2.686900016284223057e+03
5.950000000000000000e+02	2.735309065017368084e+03
5.960000000000000000e+02	2.783978276741074751e+03
5.970000000000000000e+02	2.832890696784817010e+03
5.980000000000000000e+02	2.882028908947303080e+03
5.990000000000000000e+02	2.931375042832774852e+03
6.000000000000000000e+02	2.980910781818788564e+03
6.010000000000000000e+02	3.030617371655834631e+03
6.020000000000000000e+02	3.080475629698175908e+03
6.030000000000000000e+02	3.130465954764294565e+03
6.040000000000000000e+02	3.180568337624338255e+03
6.050000000000000000e+02	3.230762372110938941e+03
6.060000000000000000e+02	3.281027266848749605e+03
6.070000000000000000e+02	3.331341857597005401e+03
6.080000000000000000e+02	3.381684620198392622e+03
6.090000000000000000e+02	3.432033684126440221e+03
6.100000000000000000e+02	3.482366846622620415e+03
6.110000000000000000e+02	3.532661587413275811e+03
6.120000000000000000e+02	3.582895083995474124e+03
6.130000000000000000e+02	3.633044227479817437e+03
6.140000000000000000e+02	3.683085638977211147e+03
6.150000000000000000e+02	3.732995686515573198e+03
6.160000000000000000e+02	3.782750502471428263e+03
6.170000000000000000e+02	3.832326001500351595e+03
6.180000000000000000e+02	3.881697898949205410e+03
6.190000000000000000e+02	3.930841729732156637e+03
6.200000000000000000e+02	3.979732867651502602e+03
6.210000000000000000e+02	4.028346545143395360e+03
6.220000000000000000e+02	4.076657873427638606e+03
6.230000000000000000e+02	4.124641863039859345e+03
6.240000000000000000e+02	4.172273444723476132e+03
6.250000000000000000e+02	4.219527490658071656e+03
6.260000000000000000e+02	4.266378835999982584e+03
6.270000000000000000e+02	4.312802300710126474e+03
6.280000000000000000e+02	4.358772711643397997e+03
6.290000000000000000e+02	4.404264924873226846e+03
6.300000000000000000e+02	4.449253848224288959e+03
6.310000000000000000e+02	4.493714463985694238e+03
6.320000000000000000e+02	4.537621851776446420e+03
6.330000000000000000e+02	4.580951211534425966e+03
6.340000000000000000e+02	4.623677886599653903e+03
6.350000000000000000e+02	4.665777386862203457e+03
6.360000000000000000e+02	4.707225411944667940e+03
6.370000000000000000e+02	4.747997874388833225e+03
6.380000000000000000e+02	4.788070922815869380e+03
6.390000000000000000e+02	4.827420965029129547e+03
6.400000000000000000e+02	4.866024691028464986e+03
6.410000000000000000e+02	4.903859095904846981e+03
6.420000000000000000e+02	4.940901502583994443e+03
6.430000000000000000e+02	4.977129584387681462e+03
6.440000000000000000e+02	5.012521387381467321e+03
6.450000000000000000e+02	5.047055352477637825e+03
6.460000000000000000e+02	5.080710337262322355e+03
6.470000000000000000e+02	5.113465637515941125e+03
6.480000000000000000e+02	5.145301008396394536e+03
6.490000000000000000e+02	5.176196685254737531e+03
6.500000000000000000e+02	5.206133404053406593e+03
6.510000000000000000e+02	5.235092421357548119e+03
6.520000000000000000e+02	5.263055533870425279e+03
6.530000000000000000e+02	5.290005097484457110e+03
6.540000000000000000e+02	5.315924045819974708e+03
6.550000000000000000e+02	5.340795908224483355e+03
6.560000000000000000e+02	5.364604827205853326e+03
6.570000000000000000e+02	5.387335575273627001e+03
6.580000000000000000e+02	5.408973571163424822e+03
6.590000000000000000e+02	5.429504895420243884e+03
6.600000000000000000e+02	5.448916305317367005e+03
6.610000000000000000e+02	5.467195249088471428e+03
6.620000000000000000e+02	5.484329879451559464e+03
6.630000000000000000e+02	5.500309066404299301e+03
6.640000000000000000e+02	5.515122409271432844e+03
6.650000000000000000e+02	5.528760247986006107e+03
6.660000000000000000e+02	5.541213673587283665e+03
6.670000000000000000e+02	5.552474537919385511e+03
6.680000000000000000e+02	5.562535462515860672e+03
6.690000000000000000e+02	5.571389846656639747e+03
6.700000000000000000e+02	5.579031874585045443e+03
6.710000000000000000e+02	5.585456521873822567e+03
6.720000000000000000e+02	5.590659560930425869e+03
6.730000000000000000e+02	5.594637565633130180e+03
6.740000000000000000e+02	5.597387915090822389e+03
6.750000000000000000e+02	5.598908796520742726e+03
6.760000000000000000e+02	5.599199207239696989e+03
6.770000000000000000e+02	5.598258955765732026e+03
6.780000000000000000e+02	5.596088662028531871e+03
6.790000000000000000e+02	5.592689756688253510e+03
6.800000000000000000e+02	5.588064479563815439e+03
6.810000000000000000e+02	5.582215877173076478e+03
6.820000000000000000e+02	5.575147799388681960e+03
6.830000000000000000e+02	5.566864895214709577e+03
6.840000000000000000e+02	5.557372607690615951e+03
6.850000000000000000e+02	5.546677167930279211e+03
6.860000000000000000e+02	5.534785588305308920e+03
6.870000000000000000e+02	5.521705654783027057e+03
6.880000000000000000e+02	5.507445918430871643e+03
6.890000000000000000e+02	5.492015686100175117e+03
6.900000000000000000e+02	5.475425010303547424e+03
6.910000000000000000e+02	5.457684678301249733e+03
6.920000000000000000e+02	5.438806200413173428e+03
6.930000000000000000e+02	5.418801797574128614e+03
6.940000000000000000e+02	5.397684388151289568e+03
6.950000000000000000e+02	5.375467574043688728e+03
6.960000000000000000e+02	5.352165626084709402e+03
6.970000000000000000e+02	5.327793468769486026e+03
6.980000000000000000e+02	5.302366664330104868e+03
6.990000000000000000e+02	5.275901396182359349e+03
7.000000000000000000e+02	5.248414451768724575e+03
7.010000000000000000e+02	5.219923204822986008e+03
7.020000000000000000e+02	5.190445597082729364e+03
7.030000000000000000e+02	5.160000119476634609e+03
7.040000000000000000e+02	5.128605792814148117e+03
7.050000000000000000e+02	5.096282148005731869e+03
7.060000000000000000e+02	5.063049205842471565e+03
7.070000000000000000e+02	5.028927456364259342e+03
7.080000000000000000e+02	4.993937837846306138e+03
7.090000000000000000e+02	4.958101715434063408e+03
7.100000000000000000e+02	4.921440859457005899e+03
7.110000000000000000e+02	4.883977423451999130e+03
7.120000000000000000e+02	4.845733921927228039e+03
7.130000000000000000e+02	4.806733207897780630e+03
7.140000000000000000e+02	4.766998450224165936e+03
7.150000000000000000e+02	4.726553110785049284e+03
7.160000000000000000e+02	4.685420921515534246e+03
7.170000000000000000e+02	4.643625861342228745e+03
7.180000000000000000e+02	4.601192133046284653e+03
7.190000000000000000e+02	4.558144140085383697e+03
7.200000000000000000e+02	4.514506463405474278e+03
7.210000000000000000e+02	4.470303838272791836e+03
7.220000000000000000e+02	4.425561131156360716e+03
7.230000000000000000e+02	4.380303316690850806e+03
7.240000000000000000e+02	4.334555454749203818e+03
7.250000000000000000e+02	4.288342667654036632e+03
7.260000000000000000e+02	4.241690117556276164e+03
7.270000000000000000e+02	4.194622984008955427e+03
7.280000000000000000e+02	4.147166441763511102e+03
7.290000000000000000e+02	4.099345638815264465e+03
7.300000000000000000e+02	4.051185674724117689e+03
7.310000000000000000e+02	4.002711579235776753e+03
7.320000000000000000e+02	3.953948291228050948e+03
7.330000000000000000e+02	3.904920638006017725e+03
7.340000000000000000e+02	3.855653314969011262e+03
7.350000000000000000e+02	3.806170865671552747e+03
7.360000000000000000e+02	3.756497662299460899e+03
7.370000000000000000e+02	3.706657886581488583e+03
7.380000000000000000e+02	3.656675511155909135e+03
7.390000000000000000e+02	3.606574281410514686e+03
7.400000000000000000e+02	3.556377697813531540e+03
7.410000000000000000e+02	3.506108998751981289e+03
7.420000000000000000e+02	3.455791143893005483e+03
7.430000000000000000e+02	3.405446798082655278e+03
7.440000000000000000e+02	3.355098315795636609e+03
7.450000000000000000e+02	3.304767726148465044e+03
7.460000000000000000e+02	3.254476718487420840e+03
7.470000000000000000e+02	3.204246628561694706e+03
7.480000000000000000e+02	3.154098425291017975e+03
7.490000000000000000e+02	3.104052698136061281e+03
7.500000000000000000e+02	3.054129645078814974e+03
7.510000000000000000e+02	3.004349061219133091e+03
7.520000000000000000e+02	2.954730327992577713e+03
7.530000000000000000e+02	2.905292403013679632e+03
7.540000000000000000e+02	2.856053810547707144e+03
7.550000000000000000e+02	2.807032632613008445e+03
7.560000000000000000e+02	2.758246500715029015e+03
7.570000000000000000e+02	2.709712588212099035e+03
7.580000000000000000e+02	2.661447603312125466e+03
7.590000000000000000e+02	2.613467782698377960e+03
7.600000000000000000e+02	2.565788885781638328e+03
7.610000000000000000e+02	2.518426189575064200e+03
7.620000000000000000e+02	2.471394484187230319e+03
7.630000000000000000e+02	2.424708068927978275e+03
7.640000000000000000e+02	2.378380749020833264e+03
7.650000000000000000e+02	2.332425832914963848e+03
7.660000000000000000e+02	2.286856130188869429e+03
7.670000000000000000e+02	2.241683950037229806e+03
7.680000000000000000e+02	2.196921100331621801e+03
7.690000000000000000e+02	2.152578887245123042e+03
7.700000000000000000e+02	2.108668115430155467e+03
7.710000000000000000e+02	2.065199088738286719e+03
7.720000000000000000e+02	2.022181611470115286e+03
7.730000000000000000e+02	1.979624990142795696e+03
7.740000000000000000e+02	1.937538035762227537e+03
7.750000000000000000e+02	1.895929066586433464e+03
7.760000000000000000e+02	1.854805911366179998e+03
7.770000000000000000e+02	1.814175913048482244e+03
7.780000000000000000e+02	1.774045932928202319e+03
7.790000000000000000e+02	1.734422355232625932e+03
7.800000000000000000e+02	1.695311092123553863e+03
7.810000000000000000e+02	1.656717589101133399e+03
7.820000000000000000e+02	1.618646830793439221e+03
7.830000000000000000e+02	1.581103347115538327e+03
7.840000000000000000e+02	1.544091219781609880e+03
7.850000000000000000e+02	1.507614089153518762e+03
7.860000000000000000e+02	1.471675161409109023e+03
7.870000000000000000e+02	1.436277216013407269e+03
7.880000000000000000e+02	1.401422613475829849e+03
7.890000000000000000e+02	1.367113303376482691e+03
7.900000000000000000e+02	1.333350832644621732e+03
7.910000000000000000e+02	1.300136354072374388e+03
7.920000000000000000e+02	1.267470635046876396e+03
7.930000000000000000e+02	1.235354066484056602e+03
7.940000000000000000e+02	1.203786671947419336e+03
7.950000000000000000e+02	1.172768116935298394e+03
7.960000000000000000e+02	1.142297718320234253e+03
7.970000000000000000e+02	1.112374453924290947e+03
7.980000000000000000e+02	1.082996972214355083e+03
7.990000000000000000e+02	1.054163602101679999e+03
8.000000000000000000e+02	1.025872362830195016e+03
8.010000000000000000e+02	9.981209739383702981e+02
8.020000000000000000e+02	9.709068652797176355e+02
8.030000000000000000e+02	9.442271870873235002e+02
8.040000000000000000e+02	9.180788200681305398e+02
8.050000000000000000e+02	8.924583855130285883e+02
8.060000000000000000e+02	8.673622554091749635e+02
8.070000000000000000e+02	8.427865625413370481e+02
8.080000000000000000e+02	8.187272105694268021e+02
8.090000000000000000e+02	7.951798840697975947e+02
8.100000000000000000e+02	7.721400585282841575e+02
8.110000000000000000e+02	7.496030102733659533e+02
8.120000000000000000e+02	7.275638263382796822e+02
8.130000000000000000e+02	7.060174142413113714e+02
8.140000000000000000e+02	6.849585116739652904e+02
8.150000000000000000e+02	6.643816960871174615e+02
8.160000000000000000e+02	6.442813941657339001e+02
8.170000000000000000e+02	6.246518911831645937e+02
8.180000000000000000e+02	6.054873402264869355e+02
8.190000000000000000e+02	5.867817712848194560e+02
8.200000000000000000e+02	5.685291001929773529e+02
8.210000000000000000e+02	5.507231374233037968e+02
8.220000000000000000e+02	5.333575967189465246e+02
8.230000000000000000e+02	5.164261035623114822e+02
8.240000000000000000e+02	4.999222034728629183e+02
8.250000000000000000e+02	4.838393701288830471e+02
8.260000000000000000e+02	4.681710133082414700e+02
8.270000000000000000e+02	4.529104866436543944e+02
8.280000000000000000e+02	4.380510951883439930e+02
8.290000000000000000e+02	4.235861027884200212e+02
8.300000000000000000e+02	4.095087392587257682e+02
8.310000000000000000e+02	3.958122073592845709e+02
8.320000000000000000e+02	3.824896895698915387e+02
8.330000000000000000e+02	3.695343546607693384e+02
8.340000000000000000e+02	3.569393640575922291e+02
8.350000000000000000e+02	3.446978779995504283e+02
8.360000000000000000e+02	3.328030614894777841e+02
8.370000000000000000e+02	3.212480900354235018e+02
8.380000000000000000e+02	3.100261551833758631e+02
8.390000000000000000e+02	2.991304698411788081e+02
8.400000000000000000e+02	2.885542733939897175e+02
8.410000000000000000e+02	2.782908366119361290e+02
8.420000000000000000e+02	2.683334663509160123e+02
8.430000000000000000e+02	2.586755100477656697e+02
8.440000000000000000e+02	2.493103600112897595e+02
8.450000000000000000e+02	2.402314575108972576e+02
8.460000000000000000e+02	2.314322966648386739e+02
8.470000000000000000e+02	2.229064281302602808e+02
8.480000000000000000e+02	2.146474625975192794e+02
8.490000000000000000e+02	2.066490740914048843e+02
8.500000000000000000e+02	1.989050030821043720e+02
8.510000000000000000e+02	1.914090594089406068e+02
8.520000000000000000e+02	1.841551250200700736e+02
8.530000000000000000e+02	1.771371565314966006e+02
8.540000000000000000e+02	1.703491876088971537e+02
8.550000000000000000e+02	1.637853311758940720e+02
8.560000000000000000e+02	1.574397814525312356e+02
8.570000000000000000e+02	1.513068158278231579e+02
8.580000000000000000e+02	1.453807965703505829e+02
8.590000000000000000e+02	1.396561723809627154e+02
8.600000000000000000e+02	1.341274797917303658e+02
8.610000000000000000e+02	1.287893444153632743e+02
8.620000000000000000e+02	1.236364820493618026e+02
8.630000000000000000e+02	1.186636996392296481e+02
8.640000000000000000e+02	1.138658961051100960e+02
8.650000000000000000e+02	1.092380630362402201e+02
8.660000000000000000e+02	1.047752852576448532e+02
8.670000000000000000e+02	1.004727412735006453e+02
8.680000000000000000e+02	9.632570359161158535e+01
8.690000000000000000e+02	9.232953893343136542e+01
8.700000000000000000e+02	8.847970833406296265e+01
8.710000000000000000e+02	8.477176713664556473e+01
8.720000000000000000e+02	8.120136488551793263e+01
8.730000000000000000e+02	7.776424512251563215e+01
8.740000000000000000e+02	7.445624509072440844e+01
8.750000000000000000e+02	7.127329534996978566e+01
8.760000000000000000e+02	6.821141930827332089e+01
8.770000000000000000e+02	6.526673267345650231e+01
8.780000000000000000e+02	6.243544282901054032e+01
8.790000000000000000e+02	5.971384813829311611e+01
8.800000000000000000e+02	5.709833718104051314e+01
8.810000000000000000e+02	5.458538792611805235e+01
8.820000000000000000e+02	5.217156684435374103e+01
8.830000000000000000e+02	4.985352796522242613e+01
8.840000000000000000e+02	4.762801188106963224e+01
8.850000000000000000e+02	4.549184470247619316e+01
8.860000000000000000e+02	4.344193696828261864e+01
8.870000000000000000e+02	4.147528251370057717e+01
8.880000000000000000e+02	3.958895729985057699e+01
8.890000000000000000e+02	3.778011820797229348e+01
8.900000000000000000e+02	3.604600180145919097e+01
8.910000000000000000e+02	3.438392305877682986e+01
8.920000000000000000e+02	3.279127408022644374e+01
8.930000000000000000e+02	3.126552277142045710e+01
8.940000000000000000e+02	2.980421150623845605e+01
8.950000000000000000e+02	2.840495577193661703e+01
8.960000000000000000e+02	2.706544279898498928e+01
8.970000000000000000e+02	2.578343017811025462e+01
8.980000000000000000e+02	2.455674446692555435e+01
8.990000000000000000e+02	2.338327978843103239e+01
9.000000000000000000e+02	2.226099642357495156e+01
9.010000000000000000e+02	2.118791939996812701e+01
9.020000000000000000e+02	2.016213707875239081e+01
9.030000000000000000e+02	1.918179974152918987e+01
9.040000000000000000e+02	1.824511817916391010e+01
9.050000000000000000e+02	1.735036228418979576e+01
9.060000000000000000e+02	1.649585964844751729e+01
9.070000000000000000e+02	1.567999416750796016e+01
9.080000000000000000e+02	1.490120465334027955e+01
9.090000000000000000e+02	1.415798345660310886e+01
9.100000000000000000e+02	1.344887509985412244e+01
9.110000000000000000e+02	1.277247492289303565e+01
9.120000000000000000e+02	1.212742774137380408e+01
9.130000000000000000e+02	1.151242651974571807e+01
9.140000000000000000e+02	1.092621105950832039e+01
9.150000000000000000e+02	1.036756670369200606e+01
9.160000000000000000e+02	9.835323058406432395e+00
9.170000000000000000e+02	9.328352732229918232e+00
9.180000000000000000e+02	8.845570094147170437e+00
9.190000000000000000e+02	8.385930050678302550e+00
9.200000000000000000e+02	7.948426842780800250e+00
9.210000000000000000e+02	7.532092863045901865e+00
9.220000000000000000e+02	7.135997493653661650e+00
9.230000000000000000e+02	6.759245965495827235e+00
9.240000000000000000e+02	6.400978238822236932e+00
9.250000000000000000e+02	6.060367905715946968e+00
9.260000000000000000e+02	5.736621114653091880e+00
9.270000000000000000e+02	5.428975517357339520e+00
9.280000000000000000e+02	5.136699238113886068e+00
9.290000000000000000e+02	4.859089865665771057e+00
9.300000000000000000e+02	4.595473467774806586e+00
9.310000000000000000e+02	4.345203628491152159e+00
9.320000000000000000e+02	4.107660508139152178e+00
9.330000000000000000e+02	3.882249925992594441e+00
9.340000000000000000e+02	3.668402465580298699e+00
9.350000000000000000e+02	3.465572602531994395e+00
9.360000000000000000e+02	3.273237854845951755e+00
9.370000000000000000e+02	3.090897955432585498e+00
9.380000000000000000e+02	2.918074046763146523e+00
9.390000000000000000e+02	2.754307897428973639e+00
9.400000000000000000e+02	2.599161140394766534e+00
9.410000000000000000e+02	2.452214532709151129e+00
9.420000000000000000e+02	2.313067236416802785e+00
9.430000000000000000e+02	2.181336120399240741e+00
9.440000000000000000e+02	2.056655082855468830e+00
9.450000000000000000e+02	1.938674394119122679e+00
9.460000000000000000e+02	1.827060059495670963e+00
9.470000000000000000e+02	1.721493201791413741e+00
9.480000000000000000e+02	1.621669463195285932e+00
9.490000000000000000e+02	1.527298426165123901e+00
9.500000000000000000e+02	1.438103052961807515e+00
9.510000000000000000e+02	1.353819143467310138e+00
9.520000000000000000e+02	1.274194810916757348e+00
9.530000000000000000e+02	1.198989975169206801e+00
9.540000000000000000e+02	1.127975873137743390e+00
9.550000000000000000e+02	1.060934585996165413e+00
9.560000000000000000e+02	9.976585827769350878e-01
9.570000000000000000e+02	9.379502799734813490e-01
9.580000000000000000e+02	8.816216167590039676e-01
9.590000000000000000e+02	8.284936454336764289e-01
9.600000000000000000e+02	7.783961367126124298e-01
9.610000000000000000e+02	7.311671994681561149e-01
9.620000000000000000e+02	6.866529145415772861e-01
9.630000000000000000e+02	6.447069822416592322e-01
9.640000000000000000e+02	6.051903831503360198e-01
9.650000000000000000e+02	5.679710518587958168e-01
9.660000000000000000e+02	5.329235632611718509e-01
9.670000000000000000e+02	4.999288310370129662e-01
9.680000000000000000e+02	4.688738179582098708e-01
9.690000000000000000e+02	4.396512576608783696e-01
9.700000000000000000e+02	4.121593875278182773e-01
9.710000000000000000e+02	3.863016923325904295e-01
9.720000000000000000e+02	3.619866583019509254e-01
9.730000000000000000e+02	3.391275372592512105e-01
9.740000000000000000e+02	3.176421205175528062e-01
9.750000000000000000e+02	2.974525221975023448e-01
9.760000000000000000e+02	2.784849716514298246e-01
9.770000000000000000e+02	2.606696146817542581e-01
9.780000000000000000e+02	2.439403232484607109e-01
9.790000000000000000e+02	2.282345133671968840e-01
9.800000000000000000e+02	2.134929709064318226e-01
9.810000000000000000e+02	1.996596849990079636e-01
9.820000000000000000e+02	1.866816887904088618e-01
9.830000000000000000e+02	1.745089072530403573e-01
9.840000000000000000e+02	1.630940118028150199e-01
9.850000000000000000e+02	1.523922814613322407e-01
9.860000000000000000e+02	1.423614703139133020e-01
9.870000000000000000e+02	1.329616810206934174e-01
9.880000000000000000e+02	1.241552441448771499e-01
9.890000000000000000e+02	1.159066030691151272e-01
9.900000000000000000e+02	1.081822042777436377e-01
9.910000000000000000e+02	1.009503927893523612e-01
9.920000000000000000e+02	9.418131253078042275e-02
9.930000000000000000e+02	8.784681145019579418e-02
9.940000000000000000e+02	8.192035117337519157e-02
9.950000000000000000e+02	7.637692101365925468e-02
9.960000000000000000e+02	7.119295615231559238e-02
9.970000000000000000e+02	6.634625981219309521e-02
9.980000000000000000e+02	6.181592925357664442e-02
9.990000000000000000e+02	5.758228542707249237e-02
1.000000000000000000e+03	5.362680612414908593e-02
