4.410000000000000000e+02	8.014709400115302529e+00
4.420000000000000000e+02	8.467111144726029437e+00
4.430000000000000000e+02	8.942985188966874333e+00
4.440000000000000000e+02	9.443424940485847685e+00
4.450000000000000000e+02	9.969567643889135411e+00
4.460000000000000000e+02	1.052259575485144971e+01
4.470000000000000000e+02	1.110373833734259463e+01
4.480000000000000000e+02	1.171427248327015924e+01
4.490000000000000000e+02	1.235552475376269221e+01
4.500000000000000000e+02	1.302887264123807398e+01
4.510000000000000000e+02	1.373574605132097304e+01
4.520000000000000000e+02	1.447762880358836846e+01
4.530000000000000000e+02	1.525606015003561922e+01
4.540000000000000000e+02	1.607263631006564353e+01
4.550000000000000000e+02	1.692901202071153932e+01
4.560000000000000000e+02	1.782690210070854420e+01
4.570000000000000000e+02	1.876808302693378749e+01
4.580000000000000000e+02	1.975439452163253762e+01
4.590000000000000000e+02	2.078774114874801171e+01
4.600000000000000000e+02	2.187009391756787835e+01
4.610000000000000000e+02	2.300349189179322806e+01
4.620000000000000000e+02	2.419004380202916593e+01
4.630000000000000000e+02	2.543192965958499485e+01
4.640000000000000000e+02	2.673140236935980596e+01
4.650000000000000000e+02	2.809078933947720103e+01
4.660000000000000000e+02	2.951249408521676898e+01
4.670000000000000000e+02	3.099899782467402432e+01
4.680000000000000000e+02	3.255286106346413533e+01
4.690000000000000000e+02	3.417672516566557306e+01
4.700000000000000000e+02	3.587331390808201803e+01
4.710000000000000000e+02	3.764543501478064513e+01
4.720000000000000000e+02	3.949598166874690719e+01
4.730000000000000000e+02	4.142793399737529114e+01
4.740000000000000000e+02	4.344436052839659368e+01
4.750000000000000000e+02	4.554841961272445161e+01
4.760000000000000000e+02	4.774336081058564929e+01
4.770000000000000000e+02	5.003252623718133663e+01
4.780000000000000000e+02	5.241935186401270386e+01
4.790000000000000000e+02	5.490736877188974319e+01
4.800000000000000000e+02	5.750020435153071219e+01
4.810000000000000000e+02	6.020158344755158453e+01
4.820000000000000000e+02	6.301532944153773741e+01
4.830000000000000000e+02	6.594536526979221946e+01
4.840000000000000000e+02	6.899571437129844753e+01
4.850000000000000000e+02	7.217050156173810649e+01
4.860000000000000000e+02	7.547395383261712709e+01
4.870000000000000000e+02	7.891040109951717341e+01
4.880000000000000000e+02	8.248427709662239238e+01
4.890000000000000000e+02	8.620012170549064479e+01
4.900000000000000000e+02	9.006259225314926198e+01
4.910000000000000000e+02	9.407652377683128009e+01
4.920000000000000000e+02	9.824723091832422028e+01
4.930000000000000000e+02	1.025818917590237191e+02
4.940000000000000000e+02	1.070953216678680064e+02
4.950000000000000000e+02	1.118318419053446462e+02
4.960000000000000000e+02	1.169402509640617751e+02
4.970000000000000000e+02	1.229056061394243926e+02
4.980000000000000000e+02	1.311922049686311595e+02
4.990000000000000000e+02	1.458327919606919920e+02
5.000000000000000000e+02	1.768912456673844531e+02
5.010000000000000000e+02	2.469995217799645957e+02
5.020000000000000000e+02	4.017125066259279720e+02
5.030000000000000000e+02	7.222975077253925065e+02
5.040000000000000000e+02	1.335186241769742537e+03
5.050000000000000000e+02	2.406833534247870375e+03
5.060000000000000000e+02	4.110324088343170843e+03
5.070000000000000000e+02	6.556921716182419004e+03
5.080000000000000000e+02	9.705149188685993067e+03
5.090000000000000000e+02	1.328558725945689730e+04
5.100000000000000000e+02	1.679372219418254826e+04
5.110000000000000000e+02	1.958668415432022084e+04
5.120000000000000000e+02	2.107011873529387594e+04
5.130000000000000000e+02	2.090374869802646208e+04
5.140000000000000000e+02	1.912884064795904851e+04
5.150000000000000000e+02	1.615242753036218164e+04
5.160000000000000000e+02	1.259651589642019280e+04
5.170000000000000000e+02	9.088506690791098663e+03
5.180000000000000000e+02	6.088748661427241132e+03
5.190000000000000000e+02	3.816093868423442473e+03
5.200000000000000000e+02	2.273111838859047111e+03
5.210000000000000000e+02	1.328700779202950798e+03
5.220000000000000000e+02	8.066845356486801393e+02
5.230000000000000000e+02	5.472547922583977424e+02
5.240000000000000000e+02	4.335716140099058862e+02
5.250000000000000000e+02	3.927608050075864412e+02
5.260000000000000000e+02	3.850244285221850191e+02
5.270000000000000000e+02	3.910572339204403534e+02
5.280000000000000000e+02	4.024684103443335630e+02
5.290000000000000000e+02	4.159726036587749718e+02
5.300000000000000000e+02	4.304082911856678493e+02
5.310000000000000000e+02	4.454059719878815713e+02
5.320000000000000000e+02	4.608623775575459831e+02
5.330000000000000000e+02	4.767552106585195020e+02
5.340000000000000000e+02	4.930845003064334833e+02
5.350000000000000000e+02	5.098558417760694965e+02
5.360000000000000000e+02	5.270760534620997078e+02
5.370000000000000000e+02	5.447521494387251551e+02
5.380000000000000000e+02	5.628911125159587527e+02
5.390000000000000000e+02	5.814998424381990390e+02
5.400000000000000000e+02	6.005851387858753014e+02
5.410000000000000000e+02	6.201536900080642454e+02
5.420000000000000000e+02	6.402120633113299846e+02
5.430000000000000000e+02	6.607666945241227268e+02
5.440000000000000000e+02	6.818238778088203844e+02
5.450000000000000000e+02	7.033897552111830009e+02
5.460000000000000000e+02	7.254703060541820605e+02
5.470000000000000000e+02	7.480713361858577173e+02
5.480000000000000000e+02	7.711984670916785944e+02
5.490000000000000000e+02	7.948571248824595159e+02
5.500000000000000000e+02	8.190525291694349335e+02
5.510000000000000000e+02	8.437896818386407176e+02
5.520000000000000000e+02	8.690733557372965379e+02
5.530000000000000000e+02	8.949080832854050414e+02
5.540000000000000000e+02	9.212981450263123406e+02
5.550000000000000000e+02	9.482475581304942125e+02
5.560000000000000000e+02	9.757600648673183059e+02
5.570000000000000000e+02	1.003839121060039133e+03
5.580000000000000000e+02	1.032487884539748620e+03
5.590000000000000000e+02	1.061709203614465650e+03
5.600000000000000000e+02	1.091505605569993349e+03
5.610000000000000000e+02	1.121879285219593612e+03
5.620000000000000000e+02	1.152832093519938098e+03
5.630000000000000000e+02	1.184365526271174531e+03
5.640000000000000000e+02	1.216480712919306143e+03
5.650000000000000000e+02	1.249178405479425919e+03
5.660000000000000000e+02	1.282458967598648996e+03
5.670000000000000000e+02	1.316322363777880355e+03
5.680000000000000000e+02	1.350768148771808001e+03
5.690000000000000000e+02	1.385795457186730800e+03
5.700000000000000000e+02	1.421402993296044542e+03
5.710000000000000000e+02	1.457589021093356450e+03
5.720000000000000000e+02	1.494351354603342088e+03
5.730000000000000000e+02	1.531687348470545658e+03
5.740000000000000000e+02	1.569593888846401342e+03
5.750000000000000000e+02	1.608067384594760142e+03
5.760000000000000000e+02	1.647103758836218049e+03
5.770000000000000000e+02	1.686698440851462010e+03
5.780000000000000000e+02	1.726846358363799254e+03
5.790000000000000000e+02	1.767541930220866107e+03
5.800000000000000000e+02	1.808779059495383990e+03
5.810000000000000000e+02	1.850551127024577909e+03
5.820000000000000000e+02	1.892850985407665803e+03
5.830000000000000000e+02	1.935670953480490425e+03
5.840000000000000000e+02	1.979002811286065253e+03
5.850000000000000000e+02	2.022837795559397136e+03
5.860000000000000000e+02	2.067166595744550705e+03
5.870000000000000000e+02	2.111979350561431147e+03
5.880000000000000000e+02	2.157265645139284516e+03
5.890000000000000000e+02	2.203014508733316234e+03
5.900000000000000000e+02	2.249214413040294858e+03
5.910000000000000000e+02	2.295853271128313281e+03
5.920000000000000000e+02	2.342918436995244974e+03
5.930000000000000000e+02	2.390396705769689106e+03
5.940000000000000000e+02	2.438274314567438523e+03
5.950000000000000000e+02	2.486536944015723748e+03
5.960000000000000000e+02	2.535169720456620780e+03
5.970000000000000000e+02	2.584157218840145106e+03
5.980000000000000000e+02	2.633483466316642534e+03
5.990000000000000000e+02	2.683131946537122076e+03
6.000000000000000000e+02	2.733085604669210170e+03
6.010000000000000000e+02	2.783326853135361489e+03
6.020000000000000000e+02	2.833837578078930619e+03
6.030000000000000000e+02	2.884599146562618898e+03
6.040000000000000000e+02	2.935592414502700194e+03
6.050000000000000000e+02	2.986797735341291173e+03
6.060000000000000000e+02	3.038194969457774278e+03
6.070000000000000000e+02	3.089763494319299298e+03
6.080000000000000000e+02	3.141482215369066580e+03
6.090000000000000000e+02	3.193329577649895782e+03
6.100000000000000000e+02	3.245283578159328954e+03
6.110000000000000000e+02	3.297321778931260269e+03
6.120000000000000000e+02	3.349421320837823259e+03
6.130000000000000000e+02	3.401558938103997207e+03
6.140000000000000000e+02	3.453710973526096950e+03
6.150000000000000000e+02	3.505853394384038438e+03
6.160000000000000000e+02	3.557961809035974511e+03
6.170000000000000000e+02	3.610011484182616641e+03
6.180000000000000000e+02	3.661977362787269158e+03
6.190000000000000000e+02	3.713834082636327366e+03
6.200000000000000000e+02	3.765555995523732236e+03
6.210000000000000000e+02	3.817117187041604666e+03
6.220000000000000000e+02	3.868491496958057724e+03
6.230000000000000000e+02	3.919652540161953766e+03
6.240000000000000000e+02	3.970573728153177399e+03
6.250000000000000000e+02	4.021228291055808313e+03
6.260000000000000000e+02	4.071589300130446645e+03
6.270000000000000000e+02	4.121629690760789344e+03
6.280000000000000000e+02	4.171322285888504666e+03
6.290000000000000000e+02	4.220639819869343228e+03
6.300000000000000000e+02	4.269554962722466371e+03
6.310000000000000000e+02	4.318040344743937567e+03
6.320000000000000000e+02	4.366068581454413106e+03
6.330000000000000000e+02	4.413612298850172920e+03
6.340000000000000000e+02	4.460644158925767442e+03
6.350000000000000000e+02	4.507136885435794284e+03
6.360000000000000000e+02	4.553063289862524471e+03
6.370000000000000000e+02	4.598396297555449564e+03
6.380000000000000000e+02	4.643108974008167024e+03
6.390000000000000000e+02	4.687174551237422747e+03
6.400000000000000000e+02	4.730566454228651310e+03
6.410000000000000000e+02	4.773258327411849677e+03
6.420000000000000000e+02	4.815224061131270901e+03
6.430000000000000000e+02	4.856437818072039590e+03
6.440000000000000000e+02	4.896874059606570881e+03
6.450000000000000000e+02	4.936507572023453577e+03
6.460000000000000000e+02	4.975313492601309918e+03
6.470000000000000000e+02	5.013267335490119876e+03
6.480000000000000000e+02	5.050345017362445105e+03
6.490000000000000000e+02	5.086522882797135935e+03
6.500000000000000000e+02	5.121777729358161196e+03
6.510000000000000000e+02	5.156086832331490768e+03
6.520000000000000000e+02	5.189427969083209973e+03
6.530000000000000000e+02	5.221779443002385051e+03
6.540000000000000000e+02	5.253120106992662841e+03
6.550000000000000000e+02	5.283429386477050684e+03
6.560000000000000000e+02	5.312687301880894665e+03
6.570000000000000000e+02	5.340874490558712750e+03
6.580000000000000000e+02	5.367972228131222437e+03
6.590000000000000000e+02	5.393962449199688308e+03
6.600000000000000000e+02	5.418827767405523446e+03
6.610000000000000000e+02	5.442551494803991773e+03
6.620000000000000000e+02	5.465117660521792459e+03
6.630000000000000000e+02	5.486511028669358893e+03
6.640000000000000000e+02	5.506717115479728818e+03
6.650000000000000000e+02	5.525722205647032752e+03
6.660000000000000000e+02	5.543513367838780141e+03
6.670000000000000000e+02	5.560078469357406902e+03
6.680000000000000000e+02	5.575406189927802188e+03
6.690000000000000000e+02	5.589486034588888288e+03
6.700000000000000000e+02	5.602308345668703623e+03
6.710000000000000000e+02	5.613864313823861266e+03
6.720000000000000000e+02	5.624145988125718759e+03
6.730000000000000000e+02	5.633146285177086611e+03
6.740000000000000000e+02	5.640858997244861712e+03
6.750000000000000000e+02	5.647278799395486203e+03
6.760000000000000000e+02	5.652401255621772179e+03
6.770000000000000000e+02	5.656222823951219652e+03
6.780000000000000000e+02	5.658740860527584118e+03
6.790000000000000000e+02	5.659953622659118992e+03
6.800000000000000000e+02	5.659860270828567081e+03
6.810000000000000000e+02	5.658460869661659672e+03
6.820000000000000000e+02	5.655756387852557054e+03
6.830000000000000000e+02	5.651748697046350571e+03
6.840000000000000000e+02	5.646440569680434237e+03
6.850000000000000000e+02	5.639835675788222943e+03
6.860000000000000000e+02	5.631938578770390450e+03
6.870000000000000000e+02	5.622754730140427455e+03
6.880000000000000000e+02	5.612290463253011694e+03
6.890000000000000000e+02	5.600552986025273640e+03
6.900000000000000000e+02	5.587550372662672999e+03
6.910000000000000000e+02	5.573291554402792826e+03
6.920000000000000000e+02	5.557786309291878752e+03
6.930000000000000000e+02	5.541045251010542415e+03
6.940000000000000000e+02	5.523079816766471595e+03
6.950000000000000000e+02	5.503902254273496510e+03
6.960000000000000000e+02	5.483525607837764255e+03
6.970000000000000000e+02	5.461963703573137536e+03
6.980000000000000000e+02	5.439231133769283588e+03
6.990000000000000000e+02	5.415343240437175155e+03
7.000000000000000000e+02	5.390316098057990530e+03
7.010000000000000000e+02	5.364166495562548334e+03
7.020000000000000000e+02	5.336911917569545039e+03
7.030000000000000000e+02	5.308570524911947359e+03
7.040000000000000000e+02	5.279161134481875706e+03
7.050000000000000000e+02	5.248703198425270784e+03
7.060000000000000000e+02	5.217216782718531249e+03
7.070000000000000000e+02	5.184722545160107074e+03
7.080000000000000000e+02	5.151241712810825447e+03
7.090000000000000000e+02	5.116796058917367191e+03
7.100000000000000000e+02	5.081407879353981116e+03
7.110000000000000000e+02	5.045099968618042112e+03
7.120000000000000000e+02	5.007895595415562639e+03
7.130000000000000000e+02	4.969818477873165648e+03
7.140000000000000000e+02	4.930892758413404408e+03
7.150000000000000000e+02	4.891142978330529331e+03
7.160000000000000000e+02	4.850594052104069306e+03
7.170000000000000000e+02	4.809271241487703264e+03
7.180000000000000000e+02	4.767200129410928639e+03
7.190000000000000000e+02	4.724406593731096109e+03
7.200000000000000000e+02	4.680916780873241805e+03
7.210000000000000000e+02	4.636757079395042638e+03
7.220000000000000000e+02	4.591954093513992120e+03
7.230000000000000000e+02	4.546534616633628502e+03
7.240000000000000000e+02	4.500525604905302316e+03
7.250000000000000000e+02	4.453954150861549351e+03
7.260000000000000000e+02	4.406847457156710334e+03
7.270000000000000000e+02	4.359232810449840144e+03
7.280000000000000000e+02	4.311137555464445541e+03
7.290000000000000000e+02	4.262589069258868221e+03
7.300000000000000000e+02	4.213614735740486140e+03
7.310000000000000000e+02	4.164241920456118351e+03
7.320000000000000000e+02	4.114497945690230154e+03
7.330000000000000000e+02	4.064410065901678990e+03
7.340000000000000000e+02	4.014005443528838441e+03
7.350000000000000000e+02	3.963311125191992687e+03
7.360000000000000000e+02	3.912354018320913383e+03
7.370000000000000000e+02	3.861160868234499958e+03
7.380000000000000000e+02	3.809758235698303451e+03
7.390000000000000000e+02	3.758172474984663950e+03
7.400000000000000000e+02	3.706429712459049824e+03
7.410000000000000000e+02	3.654555825715054198e+03
7.420000000000000000e+02	3.602576423279297160e+03
7.430000000000000000e+02	3.550516824906296733e+03
7.440000000000000000e+02	3.498402042482144225e+03
7.450000000000000000e+02	3.446256761554563127e+03
7.460000000000000000e+02	3.394105323505692468e+03
7.470000000000000000e+02	3.341971708382664019e+03
7.480000000000000000e+02	3.289879518399748576e+03
7.490000000000000000e+02	3.237851962124586407e+03
7.500000000000000000e+02	3.185911839359716851e+03
7.510000000000000000e+02	3.134081526729332836e+03
7.520000000000000000e+02	3.082382963979904162e+03
7.530000000000000000e+02	3.030837641002046894e+03
7.540000000000000000e+02	2.979466585579695675e+03
7.550000000000000000e+02	2.928290351871436542e+03
7.560000000000000000e+02	2.877329009627547293e+03
7.570000000000000000e+02	2.826602134145087803e+03
7.580000000000000000e+02	2.776128796962146225e+03
7.590000000000000000e+02	2.725927557291157882e+03
7.600000000000000000e+02	2.676016454190008517e+03
7.610000000000000000e+02	2.626412999468506769e+03
7.620000000000000000e+02	2.577134171326646538e+03
7.630000000000000000e+02	2.528196408719998090e+03
7.640000000000000000e+02	2.479615606446473521e+03
7.650000000000000000e+02	2.431407110947672663e+03
7.660000000000000000e+02	2.383585716816997774e+03
7.670000000000000000e+02	2.336165664005749022e+03
7.680000000000000000e+02	2.289160635717455079e+03
7.690000000000000000e+02	2.242583756979799091e+03
7.700000000000000000e+02	2.196447593882609453e+03
7.710000000000000000e+02	2.150764153469566281e+03
7.720000000000000000e+02	2.105544884270471357e+03
7.730000000000000000e+02	2.060800677460171755e+03
7.740000000000000000e+02	2.016541868629521105e+03
7.750000000000000000e+02	1.972778240153088063e+03
7.760000000000000000e+02	1.929519024137681754e+03
7.770000000000000000e+02	1.886772905935190920e+03
7.780000000000000000e+02	1.844548028202680371e+03
7.790000000000000000e+02	1.802851995492180322e+03
7.800000000000000000e+02	1.761691879352164278e+03
7.810000000000000000e+02	1.721074223922267947e+03
7.820000000000000000e+02	1.681005052002453567e+03
7.830000000000000000e+02	1.641489871577480017e+03
7.840000000000000000e+02	1.602533682777258264e+03
7.850000000000000000e+02	1.564140985253408417e+03
7.860000000000000000e+02	1.526315785952167971e+03
7.870000000000000000e+02	1.489061607263588485e+03
7.880000000000000000e+02	1.452381495526880826e+03
7.890000000000000000e+02	1.416278029871651597e+03
7.900000000000000000e+02	1.380753331374754907e+03
7.910000000000000000e+02	1.345809072512455259e+03
7.920000000000000000e+02	1.311446486887648462e+03
7.930000000000000000e+02	1.277666379211941376e+03
7.940000000000000000e+02	1.244469135522496344e+03
7.950000000000000000e+02	1.211854733613687813e+03
7.960000000000000000e+02	1.179822753663782350e+03
7.970000000000000000e+02	1.148372389037055427e+03
7.980000000000000000e+02	1.117502457241991124e+03
7.990000000000000000e+02	1.087211411026469477e+03
8.000000000000000000e+02	1.057497349591139482e+03
8.010000000000000000e+02	1.028358029902481803e+03
8.020000000000000000e+02	9.997908780874156491e+02
8.030000000000000000e+02	9.717930008916607676e+02
8.040000000000000000e+02	9.443611971844558184e+02
8.050000000000000000e+02	9.174919694926413740e+02
8.060000000000000000e+02	8.911815355475407614e+02
8.070000000000000000e+02	8.654258398285209068e+02
8.080000000000000000e+02	8.402205650875747551e+02
8.090000000000000000e+02	8.155611438397428401e+02
8.100000000000000000e+02	7.914427698046898740e+02
8.110000000000000000e+02	7.678604092852455096e+02
8.120000000000000000e+02	7.448088124692421843e+02
8.130000000000000000e+02	7.222825246415065976e+02
8.140000000000000000e+02	7.002758972933855830e+02
8.150000000000000000e+02	6.787830991177437454e+02
8.160000000000000000e+02	6.577981268778969479e+02
8.170000000000000000e+02	6.373148161395138231e+02
8.180000000000000000e+02	6.173268518550561339e+02
8.190000000000000000e+02	5.978277787908970140e+02
8.200000000000000000e+02	5.788110117878013625e+02
8.210000000000000000e+02	5.602698458460168922e+02
8.220000000000000000e+02	5.421974660267735544e+02
8.230000000000000000e+02	5.245869571625420349e+02
8.240000000000000000e+02	5.074313133689529423e+02
8.250000000000000000e+02	4.907234473518156506e+02
8.260000000000000000e+02	4.744561995032211144e+02
8.270000000000000000e+02	4.586223467812359331e+02
8.280000000000000000e+02	4.432146113682245527e+02
8.290000000000000000e+02	4.282256691033545053e+02
8.300000000000000000e+02	4.136481576853351498e+02
8.310000000000000000e+02	3.994746846419480448e+02
8.320000000000000000e+02	3.856978350634114463e+02
8.330000000000000000e+02	3.723101790970903266e+02
8.340000000000000000e+02	3.593042792015360192e+02
8.350000000000000000e+02	3.466726971582833698e+02
8.360000000000000000e+02	3.344080008402757471e+02
8.370000000000000000e+02	3.225027707362160072e+02
8.380000000000000000e+02	3.109496062305466353e+02
8.390000000000000000e+02	2.997411316391653600e+02
8.400000000000000000e+02	2.888700020013690732e+02
8.410000000000000000e+02	2.783289086288768885e+02
8.420000000000000000e+02	2.681105844131525942e+02
8.430000000000000000e+02	2.582078088925725865e+02
8.440000000000000000e+02	2.486134130813181002e+02
8.450000000000000000e+02	2.393202840621775920e+02
8.460000000000000000e+02	2.303213693457366276e+02
8.470000000000000000e+02	2.216096809987137135e+02
8.480000000000000000e+02	2.131782995444634423e+02
8.490000000000000000e+02	2.050203776389131747e+02
8.500000000000000000e+02	1.971291435254372004e+02
8.510000000000000000e+02	1.894979042723843179e+02
8.520000000000000000e+02	1.821200487971800044e+02
8.530000000000000000e+02	1.749890506811132980e+02
8.540000000000000000e+02	1.680984707790876485e+02
8.550000000000000000e+02	1.614419596287763170e+02
8.560000000000000000e+02	1.550132596637669167e+02
8.570000000000000000e+02	1.488062072354082375e+02
8.580000000000000000e+02	1.428147344481920982e+02
8.590000000000000000e+02	1.370328708136032105e+02
8.600000000000000000e+02	1.314547447274614740e+02
8.610000000000000000e+02	1.260745847758615099e+02
8.620000000000000000e+02	1.208867208748732196e+02
8.630000000000000000e+02	1.158855852492273328e+02
8.640000000000000000e+02	1.110657132552458108e+02
8.650000000000000000e+02	1.064217440533118406e+02
8.660000000000000000e+02	1.019484211351909835e+02
8.670000000000000000e+02	9.764059271152383701e+01
8.680000000000000000e+02	9.349321196481403717e+01
8.690000000000000000e+02	8.950133717321826055e+01
8.700000000000000000e+02	8.566013171043260854e+01
8.710000000000000000e+02	8.196486392693452672e+01
8.720000000000000000e+02	7.841090691780955524e+01
8.730000000000000000e+02	7.499373818234197131e+01
8.740000000000000000e+02	7.170893918049948468e+01
8.750000000000000000e+02	6.855219479138412453e+01
8.760000000000000000e+02	6.551929267865247652e+01
8.770000000000000000e+02	6.260612256783962692e+01
8.780000000000000000e+02	5.980867544044316020e+01
8.790000000000000000e+02	5.712304264953993993e+01
8.800000000000000000e+02	5.454541496162044467e+01
8.810000000000000000e+02	5.207208152923517019e+01
8.820000000000000000e+02	4.969942879894828991e+01
8.830000000000000000e+02	4.742393935899563218e+01
8.840000000000000000e+02	4.524219073093905052e+01
8.850000000000000000e+02	4.315085410950371880e+01
8.860000000000000000e+02	4.114669305467441518e+01
8.870000000000000000e+02	3.922656214001525399e+01
8.880000000000000000e+02	3.738740556106470336e+01
8.890000000000000000e+02	3.562625570754081394e+01
8.900000000000000000e+02	3.394023170297535330e+01
8.910000000000000000e+02	3.232653791527801701e+01
8.920000000000000000e+02	3.078246244161299572e+01
8.930000000000000000e+02	2.930537557085033740e+01
8.940000000000000000e+02	2.789272822673637720e+01
8.950000000000000000e+02	2.654205039480710582e+01
8.960000000000000000e+02	2.525094953594949132e+01
8.970000000000000000e+02	2.401710898939744965e+01
8.980000000000000000e+02	2.283828636783077570e+01
8.990000000000000000e+02	2.171231194712814272e+01
9.000000000000000000e+02	2.063708705321027281e+01
9.010000000000000000e+02	1.961058244829346719e+01
9.020000000000000000e+02	1.863083671876134062e+01
9.030000000000000000e+02	1.769595466675068351e+01
9.040000000000000000e+02	1.680410570743739740e+01
9.050000000000000000e+02	1.595352227390085531e+01
9.060000000000000000e+02	1.514249823133868667e+01
9.070000000000000000e+02	1.436938730230027694e+01
9.080000000000000000e+02	1.363260150450598829e+01
9.090000000000000000e+02	1.293060960271919946e+01
9.100000000000000000e+02	1.226193557604206497e+01
9.110000000000000000e+02	1.162515710191114593e+01
9.120000000000000000e+02	1.101890405797714401e+01
9.130000000000000000e+02	1.044185704296406492e+01
9.140000000000000000e+02	9.892745917516288401e+00
9.150000000000000000e+02	9.370348365958031778e+00
9.160000000000000000e+02	8.873488479808925078e+00
9.170000000000000000e+02	8.401035363820367863e+00
9.180000000000000000e+02	7.951901765222192608e+00
9.190000000000000000e+02	7.525042726795617476e+00
9.200000000000000000e+02	7.119454264318959780e+00
9.210000000000000000e+02	6.734172068864515914e+00
9.220000000000000000e+02	6.368270234360722704e+00
9.230000000000000000e+02	6.020860010771547977e+00
9.240000000000000000e+02	5.691088583185976546e+00
9.250000000000000000e+02	5.378137877053680960e+00
9.260000000000000000e+02	5.081223389749194297e+00
9.270000000000000000e+02	4.799593048595575340e+00
9.280000000000000000e+02	4.532526095429697754e+00
9.290000000000000000e+02	4.279331997745275729e+00
9.300000000000000000e+02	4.039349386405878484e+00
9.310000000000000000e+02	3.811945019878935081e+00
9.320000000000000000e+02	3.596512774902912213e+00
9.330000000000000000e+02	3.392472663463147686e+00
9.340000000000000000e+02	3.199269875917679418e+00
9.350000000000000000e+02	3.016373850082163077e+00
9.360000000000000000e+02	2.843277366053226451e+00
9.370000000000000000e+02	2.679495666521622965e+00
9.380000000000000000e+02	2.524565602300877565e+00
9.390000000000000000e+02	2.378044802773147115e+00
9.400000000000000000e+02	2.239510870932204245e+00
9.410000000000000000e+02	2.108560602683358098e+00
9.420000000000000000e+02	1.984809230041649775e+00
9.430000000000000000e+02	1.867889687853232061e+00
9.440000000000000000e+02	1.757451903649789093e+00
9.450000000000000000e+02	1.653162110232391013e+00
9.460000000000000000e+02	1.554702180569370817e+00
9.470000000000000000e+02	1.461768984582344055e+00
9.480000000000000000e+02	1.374073767385360689e+00
9.490000000000000000e+02	1.291341548534513883e+00
9.500000000000000000e+02	1.213310541838779733e+00
9.510000000000000000e+02	1.139731595277551968e+00
9.520000000000000000e+02	1.070367650566195206e+00
9.530000000000000000e+02	1.004993221907821255e+00
9.540000000000000000e+02	9.433938934673936627e-01
9.550000000000000000e+02	8.853658351031401530e-01
9.560000000000000000e+02	8.307153358900599693e-01
9.570000000000000000e+02	7.792583549708451685e-01
9.580000000000000000e+02	7.308200892710491337e-01
9.590000000000000000e+02	6.852345576173848318e-01
9.600000000000000000e+02	6.423442008009415671e-01
9.610000000000000000e+02	6.019994971305939746e-01
9.620000000000000000e+02	5.640585930259121028e-01
9.630000000000000000e+02	5.283869482035636889e-01
9.640000000000000000e+02	4.948569950163177467e-01
9.650000000000000000e+02	4.633478115093616068e-01
9.660000000000000000e+02	4.337448077646758882e-01
9.670000000000000000e+02	4.059394251106447360e-01
9.680000000000000000e+02	3.798288477808124952e-01
9.690000000000000000e+02	3.553157266127906500e-01
9.700000000000000000e+02	3.323079143856861872e-01
9.710000000000000000e+02	3.107182124019960967e-01
9.720000000000000000e+02	2.904641279277433985e-01
9.730000000000000000e+02	2.714676421126436812e-01
9.740000000000000000e+02	2.536549880202162988e-01
9.750000000000000000e+02	2.369564384060736106e-01
9.760000000000000000e+02	2.213061028910085215e-01
9.770000000000000000e+02	2.066417341839597299e-01
9.780000000000000000e+02	1.929045430184916365e-01
9.790000000000000000e+02	1.800390214749934825e-01
9.800000000000000000e+02	1.679927743693815367e-01
9.810000000000000000e+02	1.567163583976999008e-01
9.820000000000000000e+02	1.461631287345781793e-01
9.830000000000000000e+02	1.362890927920540063e-01
9.840000000000000000e+02	1.270527708537509959e-01
9.850000000000000000e+02	1.184150633078555198e-01
9.860000000000000000e+02	1.103391242106699921e-01
9.870000000000000000e+02	1.027902409208053119e-01
9.880000000000000000e+02	9.573571955225244901e-02
9.890000000000000000e+02	8.914477600262436796e-02
9.900000000000000000e+02	8.298843232082861454e-02
9.910000000000000000e+02	7.723941818624582845e-02
9.920000000000000000e+02	7.187207727919232847e-02
9.930000000000000000e+02	6.686227833000230047e-02
9.940000000000000000e+02	6.218733064147890371e-02
9.950000000000000000e+02	5.782590388673455872e-02
9.960000000000000000e+02	5.375795199155428139e-02
9.970000000000000000e+02	4.996464091737430613e-02
9.980000000000000000e+02	4.642828016777077876e-02
9.990000000000000000e+02	4.313225784799009505e-02
1.000000000000000000e+03	4.006097911352816260e-02
