4.410000000000000000e+02	1.377724005323262831e-55
4.420000000000000000e+02	6.627213935116961867e-54
4.430000000000000000e+02	3.019047164060163285e-52
4.440000000000000000e+02	1.302503645327713241e-50
4.450000000000000000e+02	5.321794981357285629e-49
4.460000000000000000e+02	2.059242411646492994e-47
4.470000000000000000e+02	7.546176370228845738e-46
4.480000000000000000e+02	2.618885860737715181e-44
4.490000000000000000e+02	8.607486157034472642e-43
4.500000000000000000e+02	2.679206803572582191e-41
4.510000000000000000e+02	7.897802775226641489e-40
4.520000000000000000e+02	2.204836925573352254e-38
4.530000000000000000e+02	5.829305355141214859e-37
4.540000000000000000e+02	1.459577902675207010e-35
4.550000000000000000e+02	3.461050183923991916e-34
4.560000000000000000e+02	7.772462862388496495e-33
4.570000000000000000e+02	1.653025515524575545e-31
4.580000000000000000e+02	3.329435465072124380e-30
4.590000000000000000e+02	6.350849013479738586e-29
4.600000000000000000e+02	1.147263341582698959e-27
4.610000000000000000e+02	1.962748202324093851e-26
4.620000000000000000e+02	3.180066502311611863e-25
4.630000000000000000e+02	4.879529618475633089e-24
4.640000000000000000e+02	7.090712180841131272e-23
4.650000000000000000e+02	9.758249062269609300e-22
4.660000000000000000e+02	1.271815408238161655e-20
4.670000000000000000e+02	1.569807531489772356e-19
4.680000000000000000e+02	1.835011866162744918e-18
4.690000000000000000e+02	2.031428251728946436e-17
4.700000000000000000e+02	2.129777533900650018e-16
4.710000000000000000e+02	2.114643381843913225e-15
4.720000000000000000e+02	1.988429400554228388e-14
4.730000000000000000e+02	1.770734124314091857e-13
4.740000000000000000e+02	1.493367446728403206e-12
4.750000000000000000e+02	1.192751979167395290e-11
4.760000000000000000e+02	9.022019347415245237e-11
4.770000000000000000e+02	6.462901020897809098e-10
4.780000000000000000e+02	4.384513361504407717e-09
4.790000000000000000e+02	2.816990831472676530e-08
4.800000000000000000e+02	1.714034706733034728e-07
4.810000000000000000e+02	9.876974488073877196e-07
4.820000000000000000e+02	5.390119515554373775e-06
4.830000000000000000e+02	2.785755523735043197e-05
4.840000000000000000e+02	1.363508181440135361e-04
4.850000000000000000e+02	6.320371971492485391e-04
4.860000000000000000e+02	2.774582681961531780e-03
4.870000000000000000e+02	1.153513937797046029e-02
4.880000000000000000e+02	4.541697075858017879e-02
4.890000000000000000e+02	1.693493851430057651e-01
4.900000000000000000e+02	5.980248444232190153e-01
4.910000000000000000e+02	1.999976864218157235e+00
4.920000000000000000e+02	6.334332539839397036e+00
4.930000000000000000e+02	1.899970636673143076e+01
4.940000000000000000e+02	5.397132268370842212e+01
4.950000000000000000e+02	1.451942361656886931e+02
4.960000000000000000e+02	3.699183145291652295e+02
4.970000000000000000e+02	8.925497513693259179e+02
4.980000000000000000e+02	2.039525668584644109e+03
4.990000000000000000e+02	4.413631394832531441e+03
5.000000000000000000e+02	9.045510607389001962e+03
5.010000000000000000e+02	1.755659362368454458e+04
5.020000000000000000e+02	3.227138234282559642e+04
5.030000000000000000e+02	5.617783823681456852e+04
5.040000000000000000e+02	9.261527489772376430e+04
5.050000000000000000e+02	1.446006880557230907e+05
5.060000000000000000e+02	2.138101121296723722e+05
5.070000000000000000e+02	2.994030812790545751e+05
5.080000000000000000e+02	3.970584402587374207e+05
5.090000000000000000e+02	4.986809078031343524e+05
5.100000000000000000e+02	5.931454359618214658e+05
5.110000000000000000e+02	6.681435605009476421e+05
5.120000000000000000e+02	7.127685415205218596e+05
5.130000000000000000e+02	7.201076134110010462e+05
5.140000000000000000e+02	6.889955611729307566e+05
5.150000000000000000e+02	6.243176138918357901e+05
5.160000000000000000e+02	5.357533486231778516e+05
5.170000000000000000e+02	4.354059333784905612e+05
5.180000000000000000e+02	3.351150513854206074e+05
5.190000000000000000e+02	2.442663640482609044e+05
5.200000000000000000e+02	1.686178486827250454e+05
5.210000000000000000e+02	1.102334913211679377e+05
5.220000000000000000e+02	6.824859633184519771e+04
5.230000000000000000e+02	4.001695391956005187e+04
5.240000000000000000e+02	2.222104470613904414e+04
5.250000000000000000e+02	1.168570884685698911e+04
5.260000000000000000e+02	5.819903616855611290e+03
5.270000000000000000e+02	2.745027285523268347e+03
5.280000000000000000e+02	1.226161516284743357e+03
5.290000000000000000e+02	5.187030953689339867e+02
5.300000000000000000e+02	2.078069844990437218e+02
5.310000000000000000e+02	7.884453268677539484e+01
5.320000000000000000e+02	2.833043017690924259e+01
5.330000000000000000e+02	9.640618495649054154e+00
5.340000000000000000e+02	3.106896368833854005e+00
5.350000000000000000e+02	9.482411114636005722e-01
5.360000000000000000e+02	2.740822657600797685e-01
5.370000000000000000e+02	7.502624892773841758e-02
5.380000000000000000e+02	1.944982391779966416e-02
5.390000000000000000e+02	4.775163614494029249e-03
5.400000000000000000e+02	1.110276076126303496e-03
5.410000000000000000e+02	2.444802885757911288e-04
5.420000000000000000e+02	5.098317285880077609e-05
5.430000000000000000e+02	1.006885327214543743e-05
5.440000000000000000e+02	1.883229754009316268e-06
5.450000000000000000e+02	3.335774962306247004e-07
5.460000000000000000e+02	5.595776041983911330e-08
5.470000000000000000e+02	8.889842094405592052e-09
5.480000000000000000e+02	1.337512691577240339e-09
5.490000000000000000e+02	1.905776287536739087e-10
5.500000000000000000e+02	2.571674915369783516e-11
5.510000000000000000e+02	3.286475210995861328e-12
5.520000000000000000e+02	3.977542195105379042e-13
5.530000000000000000e+02	4.558997694323473270e-14
5.540000000000000000e+02	4.948733788813040004e-15
5.550000000000000000e+02	5.087318802962247069e-16
5.560000000000000000e+02	4.952836123075382144e-17
5.570000000000000000e+02	4.566559339434223446e-18
5.580000000000000000e+02	3.987442144352415274e-19
5.590000000000000000e+02	3.297386279697478964e-20
5.600000000000000000e+02	2.582351763276718086e-21
5.610000000000000000e+02	1.915274901165140939e-22
5.620000000000000000e+02	1.345293291767947102e-23
5.630000000000000000e+02	8.948968475904337553e-25
5.640000000000000000e+02	5.637663137371022980e-26
5.650000000000000000e+02	3.363530799134245537e-27
5.660000000000000000e+02	1.900473585392720056e-28
5.670000000000000000e+02	1.016947209967763793e-29
5.680000000000000000e+02	5.153533731882289454e-31
5.690000000000000000e+02	2.473329510677050064e-32
5.700000000000000000e+02	1.124162200190968173e-33
5.710000000000000000e+02	4.838894119208731942e-35
5.720000000000000000e+02	1.972574447418442504e-36
5.730000000000000000e+02	7.615366849639155943e-38
5.740000000000000000e+02	2.784315196397800931e-39
5.750000000000000000e+02	9.640867380280580850e-41
5.760000000000000000e+02	3.161432854105518290e-42
5.770000000000000000e+02	9.817975820076787812e-44
5.780000000000000000e+02	2.887553879470021201e-45
5.790000000000000000e+02	8.042820522278568599e-47
5.800000000000000000e+02	2.121567240260737718e-48
5.810000000000000000e+02	5.299993859801885951e-50
5.820000000000000000e+02	1.253903384626457290e-51
5.830000000000000000e+02	2.809460466782497992e-53
5.840000000000000000e+02	5.961450173520210442e-55
5.850000000000000000e+02	1.197984099935581493e-56
5.860000000000000000e+02	2.279923799038139637e-58
5.870000000000000000e+02	4.109223399237331876e-60
5.880000000000000000e+02	7.014057395832213411e-62
5.890000000000000000e+02	1.133832811636026239e-63
5.900000000000000000e+02	1.735796740757533844e-65
5.910000000000000000e+02	2.516627041519836534e-67
5.920000000000000000e+02	3.455484836958184338e-69
5.930000000000000000e+02	4.493339844041208952e-71
5.940000000000000000e+02	5.533497070896785684e-73
5.950000000000000000e+02	6.453573260212931820e-75
5.960000000000000000e+02	7.128053440193957540e-77
5.970000000000000000e+02	7.456101166385082736e-79
5.980000000000000000e+02	7.386229190826286578e-81
5.990000000000000000e+02	6.929532075121032240e-83
6.000000000000000000e+02	6.156801923466758756e-85
6.010000000000000000e+02	5.180558670441026023e-87
6.020000000000000000e+02	4.128270572041851839e-89
6.030000000000000000e+02	3.115515049569281539e-91
6.040000000000000000e+02	2.226699930804351328e-93
6.050000000000000000e+02	1.507174994840168445e-95
6.060000000000000000e+02	9.661305325540454140e-98
6.070000000000000000e+02	5.865135863469344596e-100
6.080000000000000000e+02	3.372022693930439570e-102
6.090000000000000000e+02	1.836001548764190858e-104
6.100000000000000000e+02	9.467291298250448766e-107
6.110000000000000000e+02	4.623262786065609933e-109
6.120000000000000000e+02	2.138166698420938679e-111
6.130000000000000000e+02	9.364933233035108475e-114
6.140000000000000000e+02	3.884525279949261714e-116
6.150000000000000000e+02	1.525953716394929072e-118
6.160000000000000000e+02	5.676947956618549422e-121
6.170000000000000000e+02	2.000131763934112707e-123
6.180000000000000000e+02	6.673788563707604467e-126
6.190000000000000000e+02	2.108902114889544488e-128
6.200000000000000000e+02	6.311179665191331835e-131
6.210000000000000000e+02	1.788688882233582446e-133
6.220000000000000000e+02	4.800972451051855196e-136
6.230000000000000000e+02	1.220376293586466161e-138
6.240000000000000000e+02	2.937842125666879638e-141
6.250000000000000000e+02	6.697817156048867708e-144
6.260000000000000000e+02	1.446133090105465519e-146
6.270000000000000000e+02	2.957014010436105464e-149
6.280000000000000000e+02	5.726228092506263181e-152
6.290000000000000000e+02	1.050156553022368829e-154
6.300000000000000000e+02	1.823935988823172991e-157
6.310000000000000000e+02	3.000096891966372753e-160
6.320000000000000000e+02	4.673380174722514253e-163
6.330000000000000000e+02	6.894409658602093872e-166
6.340000000000000000e+02	9.632370986622284018e-169
6.350000000000000000e+02	1.274498882743596857e-171
6.360000000000000000e+02	1.597040242617011188e-174
6.370000000000000000e+02	1.895232096975076673e-177
6.380000000000000000e+02	2.129997473907050092e-180
6.390000000000000000e+02	2.267075149144879805e-183
6.400000000000000000e+02	2.285193009363245612e-186
6.410000000000000000e+02	2.181473791808072630e-189
6.420000000000000000e+02	1.972183200700061500e-192
6.430000000000000000e+02	1.688552829613138043e-195
6.440000000000000000e+02	1.369153664673583581e-198
6.450000000000000000e+02	1.051380398381360133e-201
6.460000000000000000e+02	7.646059989266990561e-205
6.470000000000000000e+02	5.266058371167910769e-208
6.480000000000000000e+02	3.434818384690866381e-211
6.490000000000000000e+02	2.121739351821849802e-214
6.500000000000000000e+02	1.241224748452287965e-217
6.510000000000000000e+02	6.876682349761228552e-221
6.520000000000000000e+02	3.608092339335727181e-224
6.530000000000000000e+02	1.792860363427904183e-227
6.540000000000000000e+02	8.436949133205256897e-231
6.550000000000000000e+02	3.760057946982627198e-234
6.560000000000000000e+02	1.586988529198853447e-237
6.570000000000000000e+02	6.343415803429615948e-241
6.580000000000000000e+02	2.401279506429296078e-244
6.590000000000000000e+02	8.608597279539460484e-248
6.600000000000000000e+02	2.922753646261632441e-251
6.610000000000000000e+02	9.397712894516551346e-255
6.620000000000000000e+02	2.861687966968966615e-258
6.630000000000000000e+02	8.252632848836134336e-262
6.640000000000000000e+02	2.253891021575357929e-265
6.650000000000000000e+02	5.829662938737243185e-269
6.660000000000000000e+02	1.427986558655909265e-272
6.670000000000000000e+02	3.312645297898761965e-276
6.680000000000000000e+02	7.277729260807434096e-280
6.690000000000000000e+02	1.514213092391949759e-283
6.700000000000000000e+02	2.983652504198587288e-287
6.710000000000000000e+02	5.567748728839451918e-291
6.720000000000000000e+02	9.839684113873086285e-295
6.730000000000000000e+02	1.646845387526133275e-298
6.740000000000000000e+02	2.610325353580577548e-302
6.750000000000000000e+02	3.918380422504058951e-306
6.760000000000000000e+02	5.570429700951094670e-310
6.770000000000000000e+02	7.499727838480404665e-314
6.780000000000000000e+02	1.070166445583619506e-317
6.790000000000000000e+02	0.000000000000000000e+00
6.800000000000000000e+02	0.000000000000000000e+00
6.810000000000000000e+02	0.000000000000000000e+00
6.820000000000000000e+02	0.000000000000000000e+00
6.830000000000000000e+02	0.000000000000000000e+00
6.840000000000000000e+02	0.000000000000000000e+00
6.850000000000000000e+02	0.000000000000000000e+00
6.860000000000000000e+02	0.000000000000000000e+00
6.870000000000000000e+02	0.000000000000000000e+00
6.880000000000000000e+02	0.000000000000000000e+00
6.890000000000000000e+02	0.000000000000000000e+00
6.900000000000000000e+02	0.000000000000000000e+00
6.910000000000000000e+02	0.000000000000000000e+00
6.920000000000000000e+02	0.000000000000000000e+00
6.930000000000000000e+02	0.000000000000000000e+00
6.940000000000000000e+02	0.000000000000000000e+00
6.950000000000000000e+02	0.000000000000000000e+00
6.960000000000000000e+02	0.000000000000000000e+00
6.970000000000000000e+02	0.000000000000000000e+00
6.980000000000000000e+02	0.000000000000000000e+00
6.990000000000000000e+02	0.000000000000000000e+00
7.000000000000000000e+02	0.000000000000000000e+00
7.010000000000000000e+02	0.000000000000000000e+00
7.020000000000000000e+02	0.000000000000000000e+00
7.030000000000000000e+02	0.000000000000000000e+00
7.040000000000000000e+02	0.000000000000000000e+00
7.050000000000000000e+02	0.000000000000000000e+00
7.060000000000000000e+02	0.000000000000000000e+00
7.070000000000000000e+02	0.000000000000000000e+00
7.080000000000000000e+02	0.000000000000000000e+00
7.090000000000000000e+02	0.000000000000000000e+00
7.100000000000000000e+02	0.000000000000000000e+00
7.110000000000000000e+02	0.000000000000000000e+00
7.120000000000000000e+02	0.000000000000000000e+00
7.130000000000000000e+02	0.000000000000000000e+00
7.140000000000000000e+02	0.000000000000000000e+00
7.150000000000000000e+02	0.000000000000000000e+00
7.160000000000000000e+02	0.000000000000000000e+00
7.170000000000000000e+02	0.000000000000000000e+00
7.180000000000000000e+02	0.000000000000000000e+00
7.190000000000000000e+02	0.000000000000000000e+00
7.200000000000000000e+02	0.000000000000000000e+00
7.210000000000000000e+02	0.000000000000000000e+00
7.220000000000000000e+02	0.000000000000000000e+00
7.230000000000000000e+02	0.000000000000000000e+00
7.240000000000000000e+02	0.000000000000000000e+00
7.250000000000000000e+02	0.000000000000000000e+00
7.260000000000000000e+02	0.000000000000000000e+00
7.270000000000000000e+02	0.000000000000000000e+00
7.280000000000000000e+02	0.000000000000000000e+00
7.290000000000000000e+02	0.000000000000000000e+00
7.300000000000000000e+02	0.000000000000000000e+00
7.310000000000000000e+02	0.000000000000000000e+00
7.320000000000000000e+02	0.000000000000000000e+00
7.330000000000000000e+02	0.000000000000000000e+00
7.340000000000000000e+02	0.000000000000000000e+00
7.350000000000000000e+02	0.000000000000000000e+00
7.360000000000000000e+02	0.000000000000000000e+00
7.370000000000000000e+02	0.000000000000000000e+00
7.380000000000000000e+02	0.000000000000000000e+00
7.390000000000000000e+02	0.000000000000000000e+00
7.400000000000000000e+02	0.000000000000000000e+00
7.410000000000000000e+02	0.000000000000000000e+00
7.420000000000000000e+02	0.000000000000000000e+00
7.430000000000000000e+02	0.000000000000000000e+00
7.440000000000000000e+02	0.000000000000000000e+00
7.450000000000000000e+02	0.000000000000000000e+00
7.460000000000000000e+02	0.000000000000000000e+00
7.470000000000000000e+02	0.000000000000000000e+00
7.480000000000000000e+02	0.000000000000000000e+00
7.490000000000000000e+02	0.000000000000000000e+00
7.500000000000000000e+02	0.000000000000000000e+00
7.510000000000000000e+02	0.000000000000000000e+00
7.520000000000000000e+02	0.000000000000000000e+00
7.530000000000000000e+02	0.000000000000000000e+00
7.540000000000000000e+02	0.000000000000000000e+00
7.550000000000000000e+02	0.000000000000000000e+00
7.560000000000000000e+02	0.000000000000000000e+00
7.570000000000000000e+02	0.000000000000000000e+00
7.580000000000000000e+02	0.000000000000000000e+00
7.590000000000000000e+02	0.000000000000000000e+00
7.600000000000000000e+02	0.000000000000000000e+00
7.610000000000000000e+02	0.000000000000000000e+00
7.620000000000000000e+02	0.000000000000000000e+00
7.630000000000000000e+02	0.000000000000000000e+00
7.640000000000000000e+02	0.000000000000000000e+00
7.650000000000000000e+02	0.000000000000000000e+00
7.660000000000000000e+02	0.000000000000000000e+00
7.670000000000000000e+02	0.000000000000000000e+00
7.680000000000000000e+02	0.000000000000000000e+00
7.690000000000000000e+02	0.000000000000000000e+00
7.700000000000000000e+02	0.000000000000000000e+00
7.710000000000000000e+02	0.000000000000000000e+00
7.720000000000000000e+02	0.000000000000000000e+00
7.730000000000000000e+02	0.000000000000000000e+00
7.740000000000000000e+02	0.000000000000000000e+00
7.750000000000000000e+02	0.000000000000000000e+00
7.760000000000000000e+02	0.000000000000000000e+00
7.770000000000000000e+02	0.000000000000000000e+00
7.780000000000000000e+02	0.000000000000000000e+00
7.790000000000000000e+02	0.000000000000000000e+00
7.800000000000000000e+02	0.000000000000000000e+00
7.810000000000000000e+02	0.000000000000000000e+00
7.820000000000000000e+02	0.000000000000000000e+00
7.830000000000000000e+02	0.000000000000000000e+00
7.840000000000000000e+02	0.000000000000000000e+00
7.850000000000000000e+02	0.000000000000000000e+00
7.860000000000000000e+02	0.000000000000000000e+00
7.870000000000000000e+02	0.000000000000000000e+00
7.880000000000000000e+02	0.000000000000000000e+00
7.890000000000000000e+02	0.000000000000000000e+00
7.900000000000000000e+02	0.000000000000000000e+00
7.910000000000000000e+02	0.000000000000000000e+00
7.920000000000000000e+02	0.000000000000000000e+00
7.930000000000000000e+02	0.000000000000000000e+00
7.940000000000000000e+02	0.000000000000000000e+00
7.950000000000000000e+02	0.000000000000000000e+00
7.960000000000000000e+02	0.000000000000000000e+00
7.970000000000000000e+02	0.000000000000000000e+00
7.980000000000000000e+02	0.000000000000000000e+00
7.990000000000000000e+02	0.000000000000000000e+00
8.000000000000000000e+02	0.000000000000000000e+00
8.010000000000000000e+02	0.000000000000000000e+00
8.020000000000000000e+02	0.000000000000000000e+00
8.030000000000000000e+02	0.000000000000000000e+00
8.040000000000000000e+02	0.000000000000000000e+00
8.050000000000000000e+02	0.000000000000000000e+00
8.060000000000000000e+02	0.000000000000000000e+00
8.070000000000000000e+02	0.000000000000000000e+00
8.080000000000000000e+02	0.000000000000000000e+00
8.090000000000000000e+02	0.000000000000000000e+00
8.100000000000000000e+02	0.000000000000000000e+00
8.110000000000000000e+02	0.000000000000000000e+00
8.120000000000000000e+02	0.000000000000000000e+00
8.130000000000000000e+02	0.000000000000000000e+00
8.140000000000000000e+02	0.000000000000000000e+00
8.150000000000000000e+02	0.000000000000000000e+00
8.160000000000000000e+02	0.000000000000000000e+00
8.170000000000000000e+02	0.000000000000000000e+00
8.180000000000000000e+02	0.000000000000000000e+00
8.190000000000000000e+02	0.000000000000000000e+00
8.200000000000000000e+02	0.000000000000000000e+00
8.210000000000000000e+02	0.000000000000000000e+00
8.220000000000000000e+02	0.000000000000000000e+00
8.230000000000000000e+02	0.000000000000000000e+00
8.240000000000000000e+02	0.000000000000000000e+00
8.250000000000000000e+02	0.000000000000000000e+00
8.260000000000000000e+02	0.000000000000000000e+00
8.270000000000000000e+02	0.000000000000000000e+00
8.280000000000000000e+02	0.000000000000000000e+00
8.290000000000000000e+02	0.000000000000000000e+00
8.300000000000000000e+02	0.000000000000000000e+00
8.310000000000000000e+02	0.000000000000000000e+00
8.320000000000000000e+02	0.000000000000000000e+00
8.330000000000000000e+02	0.000000000000000000e+00
8.340000000000000000e+02	0.000000000000000000e+00
8.350000000000000000e+02	0.000000000000000000e+00
8.360000000000000000e+02	0.000000000000000000e+00
8.370000000000000000e+02	0.000000000000000000e+00
8.380000000000000000e+02	0.000000000000000000e+00
8.390000000000000000e+02	0.000000000000000000e+00
8.400000000000000000e+02	0.000000000000000000e+00
8.410000000000000000e+02	0.000000000000000000e+00
8.420000000000000000e+02	0.000000000000000000e+00
8.430000000000000000e+02	0.000000000000000000e+00
8.440000000000000000e+02	0.000000000000000000e+00
8.450000000000000000e+02	0.000000000000000000e+00
8.460000000000000000e+02	0.000000000000000000e+00
8.470000000000000000e+02	0.000000000000000000e+00
8.480000000000000000e+02	0.000000000000000000e+00
8.490000000000000000e+02	0.000000000000000000e+00
8.500000000000000000e+02	0.000000000000000000e+00
8.510000000000000000e+02	0.000000000000000000e+00
8.520000000000000000e+02	0.000000000000000000e+00
8.530000000000000000e+02	0.000000000000000000e+00
8.540000000000000000e+02	0.000000000000000000e+00
8.550000000000000000e+02	0.000000000000000000e+00
8.560000000000000000e+02	0.000000000000000000e+00
8.570000000000000000e+02	0.000000000000000000e+00
8.580000000000000000e+02	0.000000000000000000e+00
8.590000000000000000e+02	0.000000000000000000e+00
8.600000000000000000e+02	0.000000000000000000e+00
8.610000000000000000e+02	0.000000000000000000e+00
8.620000000000000000e+02	0.000000000000000000e+00
8.630000000000000000e+02	0.000000000000000000e+00
8.640000000000000000e+02	0.000000000000000000e+00
8.650000000000000000e+02	0.000000000000000000e+00
8.660000000000000000e+02	0.000000000000000000e+00
8.670000000000000000e+02	0.000000000000000000e+00
8.680000000000000000e+02	0.000000000000000000e+00
8.690000000000000000e+02	0.000000000000000000e+00
8.700000000000000000e+02	0.000000000000000000e+00
8.710000000000000000e+02	0.000000000000000000e+00
8.720000000000000000e+02	0.000000000000000000e+00
8.730000000000000000e+02	0.000000000000000000e+00
8.740000000000000000e+02	0.000000000000000000e+00
8.750000000000000000e+02	0.000000000000000000e+00
8.760000000000000000e+02	0.000000000000000000e+00
8.770000000000000000e+02	0.000000000000000000e+00
8.780000000000000000e+02	0.000000000000000000e+00
8.790000000000000000e+02	0.000000000000000000e+00
8.800000000000000000e+02	0.000000000000000000e+00
8.810000000000000000e+02	0.000000000000000000e+00
8.820000000000000000e+02	0.000000000000000000e+00
8.830000000000000000e+02	0.000000000000000000e+00
8.840000000000000000e+02	0.000000000000000000e+00
8.850000000000000000e+02	0.000000000000000000e+00
8.860000000000000000e+02	0.000000000000000000e+00
8.870000000000000000e+02	0.000000000000000000e+00
8.880000000000000000e+02	0.000000000000000000e+00
8.890000000000000000e+02	0.000000000000000000e+00
8.900000000000000000e+02	0.000000000000000000e+00
8.910000000000000000e+02	0.000000000000000000e+00
8.920000000000000000e+02	0.000000000000000000e+00
8.930000000000000000e+02	0.000000000000000000e+00
8.940000000000000000e+02	0.000000000000000000e+00
8.950000000000000000e+02	0.000000000000000000e+00
8.960000000000000000e+02	0.000000000000000000e+00
8.970000000000000000e+02	0.000000000000000000e+00
8.980000000000000000e+02	0.000000000000000000e+00
8.990000000000000000e+02	0.000000000000000000e+00
9.000000000000000000e+02	0.000000000000000000e+00
9.010000000000000000e+02	0.000000000000000000e+00
9.020000000000000000e+02	0.000000000000000000e+00
9.030000000000000000e+02	0.000000000000000000e+00
9.040000000000000000e+02	0.000000000000000000e+00
9.050000000000000000e+02	0.000000000000000000e+00
9.060000000000000000e+02	0.000000000000000000e+00
9.070000000000000000e+02	0.000000000000000000e+00
9.080000000000000000e+02	0.000000000000000000e+00
9.090000000000000000e+02	0.000000000000000000e+00
9.100000000000000000e+02	0.000000000000000000e+00
9.110000000000000000e+02	0.000000000000000000e+00
9.120000000000000000e+02	0.000000000000000000e+00
9.130000000000000000e+02	0.000000000000000000e+00
9.140000000000000000e+02	0.000000000000000000e+00
9.150000000000000000e+02	0.000000000000000000e+00
9.160000000000000000e+02	0.000000000000000000e+00
9.170000000000000000e+02	0.000000000000000000e+00
9.180000000000000000e+02	0.000000000000000000e+00
9.190000000000000000e+02	0.000000000000000000e+00
9.200000000000000000e+02	0.000000000000000000e+00
9.210000000000000000e+02	0.000000000000000000e+00
9.220000000000000000e+02	0.000000000000000000e+00
9.230000000000000000e+02	0.000000000000000000e+00
9.240000000000000000e+02	0.000000000000000000e+00
9.250000000000000000e+02	0.000000000000000000e+00
9.260000000000000000e+02	0.000000000000000000e+00
9.270000000000000000e+02	0.000000000000000000e+00
9.280000000000000000e+02	0.000000000000000000e+00
9.290000000000000000e+02	0.000000000000000000e+00
9.300000000000000000e+02	0.000000000000000000e+00
9.310000000000000000e+02	0.000000000000000000e+00
9.320000000000000000e+02	0.000000000000000000e+00
9.330000000000000000e+02	0.000000000000000000e+00
9.340000000000000000e+02	0.000000000000000000e+00
9.350000000000000000e+02	0.000000000000000000e+00
9.360000000000000000e+02	0.000000000000000000e+00
9.370000000000000000e+02	0.000000000000000000e+00
9.380000000000000000e+02	0.000000000000000000e+00
9.390000000000000000e+02	0.000000000000000000e+00
9.400000000000000000e+02	0.000000000000000000e+00
9.410000000000000000e+02	0.000000000000000000e+00
9.420000000000000000e+02	0.000000000000000000e+00
9.430000000000000000e+02	0.000000000000000000e+00
9.440000000000000000e+02	0.000000000000000000e+00
9.450000000000000000e+02	0.000000000000000000e+00
9.460000000000000000e+02	0.000000000000000000e+00
9.470000000000000000e+02	0.000000000000000000e+00
9.480000000000000000e+02	0.000000000000000000e+00
9.490000000000000000e+02	0.000000000000000000e+00
9.500000000000000000e+02	0.000000000000000000e+00
9.510000000000000000e+02	0.000000000000000000e+00
9.520000000000000000e+02	0.000000000000000000e+00
9.530000000000000000e+02	0.000000000000000000e+00
9.540000000000000000e+02	0.000000000000000000e+00
9.550000000000000000e+02	0.000000000000000000e+00
9.560000000000000000e+02	0.000000000000000000e+00
9.570000000000000000e+02	0.000000000000000000e+00
9.580000000000000000e+02	0.000000000000000000e+00
9.590000000000000000e+02	0.000000000000000000e+00
9.600000000000000000e+02	0.000000000000000000e+00
9.610000000000000000e+02	0.000000000000000000e+00
9.620000000000000000e+02	0.000000000000000000e+00
9.630000000000000000e+02	0.000000000000000000e+00
9.640000000000000000e+02	0.000000000000000000e+00
9.650000000000000000e+02	0.000000000000000000e+00
9.660000000000000000e+02	0.000000000000000000e+00
9.670000000000000000e+02	0.000000000000000000e+00
9.680000000000000000e+02	0.000000000000000000e+00
9.690000000000000000e+02	0.000000000000000000e+00
9.700000000000000000e+02	0.000000000000000000e+00
9.710000000000000000e+02	0.000000000000000000e+00
9.720000000000000000e+02	0.000000000000000000e+00
9.730000000000000000e+02	0.000000000000000000e+00
9.740000000000000000e+02	0.000000000000000000e+00
9.750000000000000000e+02	0.000000000000000000e+00
9.760000000000000000e+02	0.000000000000000000e+00
9.770000000000000000e+02	0.000000000000000000e+00
9.780000000000000000e+02	0.000000000000000000e+00
9.790000000000000000e+02	0.000000000000000000e+00
9.800000000000000000e+02	0.000000000000000000e+00
9.810000000000000000e+02	0.000000000000000000e+00
9.820000000000000000e+02	0.000000000000000000e+00
9.830000000000000000e+02	0.000000000000000000e+00
9.840000000000000000e+02	0.000000000000000000e+00
9.850000000000000000e+02	0.000000000000000000e+00
9.860000000000000000e+02	0.000000000000000000e+00
9.870000000000000000e+02	0.000000000000000000e+00
9.880000000000000000e+02	0.000000000000000000e+00
9.890000000000000000e+02	0.000000000000000000e+00
9.900000000000000000e+02	0.000000000000000000e+00
9.910000000000000000e+02	0.000000000000000000e+00
9.920000000000000000e+02	0.000000000000000000e+00
9.930000000000000000e+02	0.000000000000000000e+00
9.940000000000000000e+02	0.000000000000000000e+00
9.950000000000000000e+02	0.000000000000000000e+00
9.960000000000000000e+02	0.000000000000000000e+00
9.970000000000000000e+02	0.000000000000000000e+00
9.980000000000000000e+02	0.000000000000000000e+00
9.990000000000000000e+02	0.000000000000000000e+00
1.000000000000000000e+03	0.000000000000000000e+00
