  440.0000	              162
  441.0000	              161
  442.0000	              165
  443.0000	              175
  444.0000	              211
  445.0000	              187
  446.0000	              175
  447.0000	              180
  448.0000	              156
  449.0000	              192
  450.0000	              247
  451.0000	              208
  452.0000	              217
  453.0000	              280
  454.0000	              284
  455.0000	              293
  456.0000	              380
  457.0000	              373
  458.0000	              311
  459.0000	              300
  460.0000	              326
  461.0000	              256
  462.0000	              224
  463.0000	              265
  464.0000	              195
  465.0000	              295
  466.0000	              255
  467.0000	              281
  468.0000	              355
  469.0000	              348
  470.0000	              380
  471.0000	              384
  472.0000	              489
  473.0000	              509
  474.0000	              495
  475.0000	              668
  476.0000	              879
  477.0000	              969
  478.0000	             1118
  479.0000	             1343
  480.0000	             1392
  481.0000	             1803
  482.0000	             1968
  483.0000	             2347
  484.0000	             2436
  485.0000	             2853
  486.0000	             3050
  487.0000	             3322
  488.0000	             3890
  489.0000	             4296
  490.0000	             5003
  491.0000	             5403
  492.0000	             6406
  493.0000	             7491
  494.0000	             8638
  495.0000	             9799
  496.0000	            12143
  497.0000	            14363
  498.0000	            17704
  499.0000	            21423
  500.0000	            27399
  501.0000	            33936
  502.0000	            42768
  503.0000	            53757
  504.0000	            68897
  505.0000	            88007
  506.0000	           113218
  507.0000	           146846
  508.0000	           188236
  509.0000	           243954
  510.0000	           311212
  511.0000	           382840
  512.0000	           442506
  513.0000	           461796
  514.0000	           427775
  515.0000	           354442
  516.0000	           270877
  517.0000	           199398
  518.0000	           145127
  519.0000	           107699
  520.0000	            80642
  521.0000	            62490
  522.0000	            47645
  523.0000	            38127
  524.0000	            30810
  525.0000	            24842
  526.0000	            19821
  527.0000	            17022
  528.0000	            13547
  529.0000	            11648
  530.0000	             9860
  531.0000	             8473
  532.0000	             7537
  533.0000	             6810
  534.0000	             5883
  535.0000	             5533
  536.0000	             5707
  537.0000	             5425
  538.0000	             5218
  539.0000	             5348
  540.0000	             5259
  541.0000	             5134
  542.0000	             5328
  543.0000	             5424
  544.0000	             5595
  545.0000	             5610
  546.0000	             5606
  547.0000	             5657
  548.0000	             5496
  549.0000	             5233
  550.0000	             4660
  551.0000	             4259
  552.0000	             3816
  553.0000	             3364
  554.0000	             3047
  555.0000	             2852
  556.0000	             2436
  557.0000	             2547
  558.0000	             2249
  559.0000	             2198
  560.0000	             2007
  561.0000	             1856
  562.0000	             1901
  563.0000	             1705
  564.0000	             1682
  565.0000	             1678
  566.0000	             1692
  567.0000	             1524
  568.0000	             1563
  569.0000	             1625
  570.0000	             1725
  571.0000	             1679
  572.0000	             1476
  573.0000	             1702
  574.0000	             1531
  575.0000	             1479
  576.0000	             1511
  577.0000	             1326
  578.0000	             1216
  579.0000	             1180
  580.0000	             1158
  581.0000	             1154
  582.0000	             1098
  583.0000	             1033
  584.0000	              869
  585.0000	              868
  586.0000	              833
  587.0000	              875
  588.0000	              885
  589.0000	              723
  590.0000	              656
  591.0000	              663
  592.0000	              639
  593.0000	              728
  594.0000	              679
  595.0000	              617
  596.0000	              662
  597.0000	              586
  598.0000	              507
  599.0000	              573
  600.0000	              536
  601.0000	              525
  602.0000	              590
  603.0000	              567
  604.0000	              552
  605.0000	              458
  606.0000	              491
  607.0000	              452
  608.0000	              535
  609.0000	              435
  610.0000	              478
  611.0000	              401
  612.0000	              484
  613.0000	              379
  614.0000	              458
  615.0000	              417
  616.0000	              402
  617.0000	              406
  618.0000	              379
  619.0000	              361
  620.0000	              395
  621.0000	              442
  622.0000	              341
  623.0000	              473
  624.0000	              335
  625.0000	              330
  626.0000	              310
  627.0000	              382
  628.0000	              379
  629.0000	              306
  630.0000	              352
  631.0000	              357
  632.0000	              441
  633.0000	              343
  634.0000	              347
  635.0000	              336
  636.0000	              336
  637.0000	              368
  638.0000	              343
  639.0000	              376
  640.0000	              322
  641.0000	              343
  642.0000	              317
  643.0000	              272
  644.0000	              267
  645.0000	              320
  646.0000	              276
  647.0000	              325
  648.0000	              305
  649.0000	              326
  650.0000	              278
  651.0000	              297
  652.0000	              225
  653.0000	              263
  654.0000	              277
  655.0000	              251
  656.0000	              250
  657.0000	              246
  658.0000	              274
  659.0000	              302
  660.0000	              253
  661.0000	              230
  662.0000	              218
  663.0000	              227
  664.0000	              295
  665.0000	              205
  666.0000	              226
  667.0000	              259
  668.0000	              167
  669.0000	              194
  670.0000	              232
  671.0000	              188
  672.0000	              205
  673.0000	              268
  674.0000	              204
  675.0000	              212
  676.0000	              230
  677.0000	              174
  678.0000	              139
  679.0000	              214
  680.0000	              228
  681.0000	              214
  682.0000	              227
  683.0000	              221
  684.0000	              173
  685.0000	              163
  686.0000	              201
  687.0000	              176
  688.0000	              176
  689.0000	              143
  690.0000	              181
  691.0000	              179
  692.0000	              207
  693.0000	              189
  694.0000	              135
  695.0000	              150
  696.0000	              206
  697.0000	              126
  698.0000	              179
  699.0000	              170
  700.0000	              186
  701.0000	              181
  702.0000	              158
  703.0000	              156
  704.0000	              162
  705.0000	              159
  706.0000	              161
  707.0000	              140
  708.0000	              147
  709.0000	              143
  710.0000	              177
  711.0000	              148
  712.0000	              124
  713.0000	              167
  714.0000	              141
  715.0000	              120
  716.0000	              124
  717.0000	              155
  718.0000	              157
  719.0000	              147
  720.0000	              126
  721.0000	              141
  722.0000	               77
  723.0000	              143
  724.0000	               97
  725.0000	              114
  726.0000	              113
  727.0000	              122
  728.0000	              125
  729.0000	              109
  730.0000	              118
  731.0000	               92
  732.0000	              118
  733.0000	              145
  734.0000	              115
  735.0000	              147
  736.0000	               82
  737.0000	              118
  738.0000	              117
  739.0000	              109
  740.0000	              109
  741.0000	               95
  742.0000	               97
  743.0000	               72
  744.0000	              127
  745.0000	               87
  746.0000	               94
  747.0000	              119
  748.0000	              125
  749.0000	               78
  750.0000	               90
  751.0000	              124
  752.0000	              113
  753.0000	               80
  754.0000	               99
  755.0000	               99
  756.0000	               82
  757.0000	              107
  758.0000	               89
  759.0000	               82
  760.0000	               88
  761.0000	               59
  762.0000	               89
  763.0000	               88
  764.0000	              119
  765.0000	              100
  766.0000	               63
  767.0000	              108
  768.0000	               79
  769.0000	              107
  770.0000	              113
  771.0000	               58
  772.0000	               84
  773.0000	               82
  774.0000	               59
  775.0000	              102
  776.0000	               62
  777.0000	              113
  778.0000	              119
  779.0000	              115
  780.0000	               88
  781.0000	               65
  782.0000	               77
  783.0000	               72
  784.0000	               71
  785.0000	               59
  786.0000	               71
  787.0000	               76
  788.0000	              108
  789.0000	               85
  790.0000	               58
  791.0000	               72
  792.0000	               87
  793.0000	               87
  794.0000	               72
  795.0000	               83
  796.0000	               57
  797.0000	               83
  798.0000	               67
  799.0000	               59
  800.0000	               71
