  440.0000	              255
  441.0000	              259
  442.0000	              279
  443.0000	              290
  444.0000	              274
  445.0000	              264
  446.0000	              271
  447.0000	              295
  448.0000	              309
  449.0000	              328
  450.0000	              309
  451.0000	              361
  452.0000	              321
  453.0000	              475
  454.0000	              475
  455.0000	              523
  456.0000	              652
  457.0000	              587
  458.0000	              445
  459.0000	              489
  460.0000	              541
  461.0000	              397
  462.0000	              396
  463.0000	              358
  464.0000	              403
  465.0000	              438
  466.0000	              459
  467.0000	              530
  468.0000	              455
  469.0000	              538
  470.0000	              641
  471.0000	              675
  472.0000	              730
  473.0000	              909
  474.0000	              930
  475.0000	             1306
  476.0000	             1444
  477.0000	             1588
  478.0000	             1932
  479.0000	             2346
  480.0000	             2770
  481.0000	             3031
  482.0000	             3736
  483.0000	             4116
  484.0000	             4771
  485.0000	             4902
  486.0000	             6058
  487.0000	             6410
  488.0000	             7776
  489.0000	             8364
  490.0000	             9793
  491.0000	            10883
  492.0000	            12786
  493.0000	            14513
  494.0000	            16724
  495.0000	            19889
  496.0000	            23949
  497.0000	            28962
  498.0000	            35716
  499.0000	            44417
  500.0000	            54634
  501.0000	            67941
  502.0000	            85924
  503.0000	           107888
  504.0000	           136974
  505.0000	           172650
  506.0000	           218435
  507.0000	           275917
  508.0000	           351635
  509.0000	           438249
  510.0000	           541974
  511.0000	           646579
  512.0000	           727611
  513.0000	           755198
  514.0000	           714017
  515.0000	           612430
  516.0000	           484877
  517.0000	           370205
  518.0000	           278202
  519.0000	           210225
  520.0000	           159154
  521.0000	           124420
  522.0000	            97208
  523.0000	            78015
  524.0000	            62988
  525.0000	            49958
  526.0000	            41062
  527.0000	            32991
  528.0000	            27928
  529.0000	            23170
  530.0000	            20265
  531.0000	            17390
  532.0000	            15467
  533.0000	            14125
  534.0000	            12954
  535.0000	            12231
  536.0000	            11638
  537.0000	            11503
  538.0000	            11243
  539.0000	            11326
  540.0000	            11159
  541.0000	            11560
  542.0000	            11673
  543.0000	            11990
  544.0000	            12166
  545.0000	            12286
  546.0000	            12090
  547.0000	            12176
  548.0000	            11507
  549.0000	            10907
  550.0000	             9473
  551.0000	             8879
  552.0000	             8224
  553.0000	             7227
  554.0000	             6608
  555.0000	             6259
  556.0000	             5679
  557.0000	             5221
  558.0000	             4670
  559.0000	             4465
  560.0000	             4114
  561.0000	             4040
  562.0000	             3779
  563.0000	             3656
  564.0000	             3501
  565.0000	             3527
  566.0000	             3558
  567.0000	             3508
  568.0000	             3734
  569.0000	             3361
  570.0000	             3563
  571.0000	             3502
  572.0000	             3350
  573.0000	             3406
  574.0000	             3194
  575.0000	             3132
  576.0000	             3038
  577.0000	             3122
  578.0000	             2831
  579.0000	             2648
  580.0000	             2265
  581.0000	             2325
  582.0000	             2152
  583.0000	             2034
  584.0000	             1863
  585.0000	             1942
  586.0000	             1888
  587.0000	             1590
  588.0000	             1491
  589.0000	             1497
  590.0000	             1495
  591.0000	             1371
  592.0000	             1383
  593.0000	             1399
  594.0000	             1295
  595.0000	             1287
  596.0000	             1134
  597.0000	             1250
  598.0000	             1205
  599.0000	             1094
  600.0000	             1010
  601.0000	             1064
  602.0000	             1059
  603.0000	              879
  604.0000	             1030
  605.0000	              997
  606.0000	              883
  607.0000	              900
  608.0000	              970
  609.0000	             1027
  610.0000	              912
  611.0000	              933
  612.0000	              869
  613.0000	              899
  614.0000	              813
  615.0000	              833
  616.0000	              886
  617.0000	              870
  618.0000	              826
  619.0000	              940
  620.0000	              815
  621.0000	              897
  622.0000	              754
  623.0000	              881
  624.0000	              753
  625.0000	              755
  626.0000	              698
  627.0000	              811
  628.0000	              856
  629.0000	              732
  630.0000	              704
  631.0000	              702
  632.0000	              665
  633.0000	              700
  634.0000	              619
  635.0000	              713
  636.0000	              675
  637.0000	              704
  638.0000	              623
  639.0000	              570
  640.0000	              598
  641.0000	              590
  642.0000	              655
  643.0000	              637
  644.0000	              522
  645.0000	              625
  646.0000	              612
  647.0000	              621
  648.0000	              534
  649.0000	              508
  650.0000	              506
  651.0000	              530
  652.0000	              498
  653.0000	              575
  654.0000	              442
  655.0000	              478
  656.0000	              521
  657.0000	              447
  658.0000	              521
  659.0000	              557
  660.0000	              444
  661.0000	              491
  662.0000	              376
  663.0000	              427
  664.0000	              339
  665.0000	              406
  666.0000	              424
  667.0000	              402
  668.0000	              417
  669.0000	              456
  670.0000	              391
  671.0000	              375
  672.0000	              396
  673.0000	              389
  674.0000	              331
  675.0000	              372
  676.0000	              382
  677.0000	              357
  678.0000	              385
  679.0000	              366
  680.0000	              398
  681.0000	              346
  682.0000	              313
  683.0000	              352
  684.0000	              410
  685.0000	              337
  686.0000	              399
  687.0000	              398
  688.0000	              298
  689.0000	              304
  690.0000	              331
  691.0000	              354
  692.0000	              345
  693.0000	              303
  694.0000	              307
  695.0000	              377
  696.0000	              330
  697.0000	              275
  698.0000	              298
  699.0000	              343
  700.0000	              268
  701.0000	              331
  702.0000	              293
  703.0000	              317
  704.0000	              304
  705.0000	              304
  706.0000	              280
  707.0000	              278
  708.0000	              246
  709.0000	              265
  710.0000	              255
  711.0000	              245
  712.0000	              272
  713.0000	              268
  714.0000	              258
  715.0000	              250
  716.0000	              200
  717.0000	              213
  718.0000	              159
  719.0000	              216
  720.0000	              264
  721.0000	              234
  722.0000	              235
  723.0000	              200
  724.0000	              216
  725.0000	              175
  726.0000	              143
  727.0000	              219
  728.0000	              174
  729.0000	              237
  730.0000	              186
  731.0000	              156
  732.0000	              149
  733.0000	              197
  734.0000	              199
  735.0000	              148
  736.0000	              172
  737.0000	              224
  738.0000	              187
  739.0000	              196
  740.0000	              161
  741.0000	              175
  742.0000	              171
  743.0000	              172
  744.0000	              181
  745.0000	              138
  746.0000	              202
  747.0000	              127
  748.0000	               86
  749.0000	              147
  750.0000	              146
  751.0000	              128
  752.0000	              150
  753.0000	              140
  754.0000	              131
  755.0000	              196
  756.0000	              127
  757.0000	              118
  758.0000	              161
  759.0000	              131
  760.0000	              125
  761.0000	               82
  762.0000	              114
  763.0000	              151
  764.0000	              121
  765.0000	              143
  766.0000	              156
  767.0000	              151
  768.0000	              105
  769.0000	              132
  770.0000	              126
  771.0000	              103
  772.0000	              132
  773.0000	              110
  774.0000	              129
  775.0000	               99
  776.0000	               85
  777.0000	               73
  778.0000	              131
  779.0000	               92
  780.0000	               98
  781.0000	               88
  782.0000	               93
  783.0000	              147
  784.0000	               81
  785.0000	               92
  786.0000	               95
  787.0000	              103
  788.0000	              112
  789.0000	               72
  790.0000	               90
  791.0000	               88
  792.0000	               55
  793.0000	               65
  794.0000	               74
  795.0000	               76
  796.0000	               74
  797.0000	               48
  798.0000	               85
  799.0000	              131
  800.0000	               92
