nm, A
800.000000, 0.001070
799.000000, 0.000918
798.000000, -0.000143
797.000000, -0.000343
796.000000, -0.000185
795.000000, -0.001200
794.000000, 0.000635
793.000000, -0.000032
792.000000, 0.000006
791.000000, 0.000528
790.000000, -0.000701
789.000000, 0.000267
788.000000, -0.000885
787.000000, 0.001259
786.000000, 0.001162
785.000000, -0.000191
784.000000, 0.000585
783.000000, -0.000766
782.000000, -0.001404
781.000000, 0.000156
780.000000, 0.000216
779.000000, 0.000320
778.000000, -0.000063
777.000000, -0.000051
776.000000, 0.000705
775.000000, 0.000700
774.000000, -0.000104
773.000000, 0.000841
772.000000, 0.000050
771.000000, -0.000302
770.000000, -0.000239
769.000000, 0.000634
768.000000, -0.000609
767.000000, 0.000407
766.000000, 0.000866
765.000000, 0.000060
764.000000, 0.000402
763.000000, 0.000012
762.000000, 0.000502
761.000000, 0.000002
760.000000, 0.000815
759.000000, 0.000261
758.000000, 0.000244
757.000000, 0.000060
756.000000, 0.000386
755.000000, -0.000824
754.000000, -0.000142
753.000000, 0.000778
752.000000, 0.000368
751.000000, 0.000713
750.000000, 0.000742
749.000000, -0.000129
748.000000, 0.000005
747.000000, -0.001613
746.000000, 0.000765
745.000000, 0.000314
744.000000, -0.000640
743.000000, -0.000794
742.000000, 0.000030
741.000000, 0.000123
740.000000, 0.001005
739.000000, 0.001335
738.000000, 0.000173
737.000000, -0.000051
736.000000, 0.000181
735.000000, -0.000240
734.000000, -0.000647
733.000000, 0.000652
732.000000, 0.000112
731.000000, -0.000555
730.000000, -0.000319
729.000000, -0.000410
728.000000, -0.000117
727.000000, 0.000386
726.000000, 0.000276
725.000000, 0.000651
724.000000, 0.000872
723.000000, 0.001148
722.000000, -0.000668
721.000000, -0.001028
720.000000, -0.000747
719.000000, -0.000843
718.000000, -0.000205
717.000000, 0.000083
716.000000, -0.000061
715.000000, -0.000147
714.000000, 0.000370
713.000000, 0.000573
712.000000, 0.000454
711.000000, 0.000173
710.000000, 0.000848
709.000000, 0.000731
708.000000, 0.000164
707.000000, -0.000345
706.000000, 0.000167
705.000000, 0.000021
704.000000, 0.000370
703.000000, 0.000615
702.000000, -0.000109
701.000000, 0.000121
700.000000, 0.000792
699.000000, -0.000289
698.000000, -0.000984
697.000000, 0.000570
696.000000, 0.001646
695.000000, 0.001019
694.000000, 0.000493
693.000000, 0.000185
692.000000, 0.000744
691.000000, 0.001274
690.000000, 0.001373
689.000000, 0.000676
688.000000, 0.000193
687.000000, 0.000086
686.000000, 0.000201
685.000000, -0.000386
684.000000, 0.000057
683.000000, 0.000337
682.000000, 0.000171
681.000000, 0.001475
680.000000, 0.002115
679.000000, 0.000108
678.000000, -0.000704
677.000000, -0.000216
676.000000, -0.000495
675.000000, -0.000869
674.000000, 0.000378
673.000000, 0.001216
672.000000, 0.000372
671.000000, 0.000231
670.000000, 0.001295
669.000000, 0.000429
668.000000, 0.000164
667.000000, 0.000796
666.000000, -0.000611
665.000000, -0.000385
664.000000, 0.000636
663.000000, 0.000594
662.000000, 0.000466
661.000000, 0.000454
660.000000, 0.000158
659.000000, -0.000275
658.000000, -0.000269
657.000000, -0.000025
656.000000, 0.000287
655.000000, 0.000585
654.000000, 0.000029
653.000000, -0.000637
652.000000, -0.001018
651.000000, -0.000835
650.000000, 0.000315
649.000000, 0.000763
648.000000, 0.000096
647.000000, 0.000251
646.000000, 0.000235
645.000000, 0.000553
644.000000, 0.001421
643.000000, 0.000579
642.000000, 0.000524
641.000000, 0.000926
640.000000, 0.000168
639.000000, 0.000709
638.000000, 0.001372
637.000000, 0.000823
636.000000, 0.000279
635.000000, -0.000403
634.000000, -0.000096
633.000000, 0.000670
632.000000, -0.000489
631.000000, -0.000426
630.000000, 0.000823
629.000000, 0.000436
628.000000, 0.000528
627.000000, 0.000438
626.000000, -0.000306
625.000000, 0.000797
624.000000, 0.000909
623.000000, 0.000068
622.000000, -0.000716
621.000000, -0.000595
620.000000, -0.000079
619.000000, 0.000272
618.000000, 0.000518
617.000000, 0.000155
616.000000, 0.000565
615.000000, -0.000015
614.000000, 0.000891
613.000000, -0.000200
612.000000, 0.000037
611.000000, 0.000328
610.000000, 0.000853
609.000000, 0.000160
608.000000, -0.000103
607.000000, -0.000339
606.000000, -0.000715
605.000000, 0.000028
604.000000, -0.000106
603.000000, 0.000861
602.000000, 0.000105
601.000000, -0.000299
600.000000, -0.000559
599.000000, -0.000265
598.000000, 0.000644
597.000000, -0.000691
596.000000, -0.000154
595.000000, -0.000212
594.000000, 0.000005
593.000000, -0.001534
592.000000, 0.000053
591.000000, -0.000268
590.000000, 0.000168
589.000000, 0.000651
588.000000, 0.000100
587.000000, -0.000396
586.000000, -0.000166
585.000000, 0.001041
584.000000, 0.000477
583.000000, 0.000786
582.000000, -0.000330
581.000000, 0.000503
580.000000, -0.000847
579.000000, 0.000851
578.000000, -0.000074
577.000000, 0.000550
576.000000, -0.000033
575.000000, -0.000006
574.000000, 0.000378
573.000000, -0.000690
572.000000, 0.000447
571.000000, 0.001021
570.000000, 0.000246
569.000000, 0.000141
568.000000, -0.000035
567.000000, 0.000904
566.000000, 0.000443
565.000000, -0.001012
564.000000, 0.000210
563.000000, 0.000208
562.000000, 0.001097
561.000000, 0.000330
560.000000, 0.000368
559.000000, -0.000353
558.000000, 0.000123
557.000000, 0.000049
556.000000, -0.000705
555.000000, 0.000303
554.000000, 0.000693
553.000000, -0.000464
552.000000, -0.000167
551.000000, 0.000153
550.000000, -0.000219
549.000000, 0.000038
548.000000, -0.001175
547.000000, 0.000597
546.000000, 0.001172
545.000000, -0.000318
544.000000, -0.000556
543.000000, 0.000465
542.000000, -0.000480
541.000000, -0.000202
540.000000, 0.000068
539.000000, 0.000587
538.000000, 0.000802
537.000000, 0.000075
536.000000, 0.000248
535.000000, 0.000071
534.000000, 0.001710
533.000000, 0.000760
532.000000, 0.000018
531.000000, -0.000058
530.000000, 0.000952
529.000000, 0.000457
528.000000, 0.000227
527.000000, 0.000243
526.000000, 0.000371
525.000000, 0.001000
524.000000, 0.001534
523.000000, 0.000844
522.000000, 0.001877
521.000000, 0.001949
520.000000, 0.002770
519.000000, 0.004176
518.000000, 0.006907
517.000000, 0.009653
516.000000, 0.013525
515.000000, 0.019882
514.000000, 0.028213
513.000000, 0.037170
512.000000, 0.045401
511.000000, 0.050120
510.000000, 0.051376
509.000000, 0.049153
508.000000, 0.044307
507.000000, 0.040126
506.000000, 0.035929
505.000000, 0.031254
504.000000, 0.027958
503.000000, 0.025712
502.000000, 0.024031
501.000000, 0.022294
500.000000, 0.022205
499.000000, 0.020611
498.000000, 0.019329
497.000000, 0.019342
496.000000, 0.019750
495.000000, 0.019553
494.000000, 0.020313
493.000000, 0.021906
492.000000, 0.022419
491.000000, 0.022109
490.000000, 0.023009
489.000000, 0.025224
488.000000, 0.025760
487.000000, 0.026796
486.000000, 0.028747
485.000000, 0.031992
484.000000, 0.033841
483.000000, 0.034287
482.000000, 0.035162
481.000000, 0.034882
480.000000, 0.035352
479.000000, 0.035080
478.000000, 0.033962
477.000000, 0.033095
476.000000, 0.032436
475.000000, 0.031623
474.000000, 0.030977
473.000000, 0.028749
472.000000, 0.027096
471.000000, 0.026002
470.000000, 0.026103
469.000000, 0.025737
468.000000, 0.025798
467.000000, 0.024241
466.000000, 0.023392
465.000000, 0.023358
464.000000, 0.022629
463.000000, 0.022869
462.000000, 0.021897
461.000000, 0.020962
460.000000, 0.021439
459.000000, 0.021248
458.000000, 0.021398
457.000000, 0.021113
456.000000, 0.020837
455.000000, 0.021416
454.000000, 0.019798
453.000000, 0.018870
452.000000, 0.019537
451.000000, 0.019789
450.000000, 0.019552
449.000000, 0.018919
448.000000, 0.018409
447.000000, 0.019577
446.000000, 0.019821
445.000000, 0.019544
444.000000, 0.019900
443.000000, 0.020567
442.000000, 0.021151
441.000000, 0.021175
440.000000, 0.021001
439.000000, 0.020903
438.000000, 0.022644
437.000000, 0.023926
436.000000, 0.024144
435.000000, 0.025187
434.000000, 0.024878
433.000000, 0.024371
432.000000, 0.024593
431.000000, 0.024682
430.000000, 0.025623
429.000000, 0.025938
428.000000, 0.026257
427.000000, 0.026645
426.000000, 0.027173
425.000000, 0.027306
424.000000, 0.026625
423.000000, 0.027460
422.000000, 0.027886
421.000000, 0.028097
420.000000, 0.028140
419.000000, 0.027186
418.000000, 0.026429
417.000000, 0.025902
416.000000, 0.026051
415.000000, 0.027299
414.000000, 0.028339
413.000000, 0.028117
412.000000, 0.027760
411.000000, 0.027479
410.000000, 0.026709
409.000000, 0.027545
408.000000, 0.027417
407.000000, 0.027350
406.000000, 0.027152
405.000000, 0.027094
404.000000, 0.027613
403.000000, 0.026960
402.000000, 0.027686
401.000000, 0.027869
400.000000, 0.026912
399.000000, 0.027213
398.000000, 0.027381
397.000000, 0.026357
396.000000, 0.025278
395.000000, 0.025666
394.000000, 0.026106
393.000000, 0.025736
392.000000, 0.025088
391.000000, 0.026283
390.000000, 0.026060
389.000000, 0.025540
388.000000, 0.026028
387.000000, 0.026869
386.000000, 0.027159
385.000000, 0.026501
384.000000, 0.026552
383.000000, 0.026610
382.000000, 0.026370
381.000000, 0.026984
380.000000, 0.026602
379.000000, 0.026319
378.000000, 0.025519
377.000000, 0.025831
376.000000, 0.027655
375.000000, 0.027575
374.000000, 0.026758
373.000000, 0.026150
372.000000, 0.025100
371.000000, 0.026391
370.000000, 0.027821
369.000000, 0.026764
368.000000, 0.026911
367.000000, 0.027087
366.000000, 0.027020
365.000000, 0.028502
364.000000, 0.028732
363.000000, 0.028840
362.000000, 0.028140
361.000000, 0.027868
360.000000, 0.026856
359.000000, 0.028521
358.000000, 0.028652
357.000000, 0.029160
356.000000, 0.029663
355.000000, 0.028227
354.000000, 0.028921
353.000000, 0.029758
352.000000, 0.029273
351.000000, 0.029137
350.000000, 0.029956
349.000000, 0.031557
348.000000, 0.031345
347.000000, 0.033029
346.000000, 0.034083
345.000000, 0.034297
344.000000, 0.035309
343.000000, 0.034122
342.000000, 0.035248
341.000000, 0.036909
340.000000, 0.036820
339.000000, 0.038301
338.000000, 0.038477
337.000000, 0.040236
336.000000, 0.040719
335.000000, 0.041245
334.000000, 0.041277
333.000000, 0.044025
332.000000, 0.044677
331.000000, 0.045548
330.000000, 0.047184
329.000000, 0.048958
328.000000, 0.050305
327.000000, 0.051098
326.000000, 0.053051
325.000000, 0.055949
324.000000, 0.058413
323.000000, 0.060631
322.000000, 0.063114
321.000000, 0.064352
320.000000, 0.066969
319.000000, 0.068027
318.000000, 0.068152
317.000000, 0.069433
316.000000, 0.070590
315.000000, 0.072074
314.000000, 0.071920
313.000000, 0.073471
312.000000, 0.074626
311.000000, 0.073996
310.000000, 0.075129
309.000000, 0.076517
308.000000, 0.077308
307.000000, 0.078147
306.000000, 0.079028
305.000000, 0.080780
304.000000, 0.082369
303.000000, 0.081777
302.000000, 0.082851
301.000000, 0.083746
300.000000, 0.084352
