nm, A
800.000000, 0.000915
799.000000, 0.001015
798.000000, 0.000835
797.000000, 0.000262
796.000000, -0.000191
795.000000, 0.000710
794.000000, -0.000271
793.000000, 0.001228
792.000000, 0.000706
791.000000, -0.000593
790.000000, 0.000369
789.000000, 0.000342
788.000000, 0.000898
787.000000, 0.000881
786.000000, -0.000109
785.000000, -0.000169
784.000000, 0.000324
783.000000, 0.000433
782.000000, -0.000025
781.000000, -0.000758
780.000000, -0.000755
779.000000, 0.000898
778.000000, 0.000763
777.000000, 0.000620
776.000000, 0.000039
775.000000, -0.000506
774.000000, 0.000214
773.000000, 0.001053
772.000000, 0.000477
771.000000, 0.000848
770.000000, -0.000100
769.000000, -0.000455
768.000000, 0.000375
767.000000, -0.000366
766.000000, -0.000305
765.000000, 0.000005
764.000000, -0.001057
763.000000, -0.000521
762.000000, 0.000341
761.000000, 0.000257
760.000000, -0.000000
759.000000, -0.000749
758.000000, -0.001404
757.000000, -0.000233
756.000000, -0.000522
755.000000, 0.001104
754.000000, 0.001071
753.000000, 0.000066
752.000000, 0.001264
751.000000, 0.000421
750.000000, 0.000204
749.000000, 0.000060
748.000000, 0.000610
747.000000, -0.000254
746.000000, 0.000723
745.000000, 0.001665
744.000000, 0.002069
743.000000, 0.000915
742.000000, -0.000342
741.000000, -0.000405
740.000000, -0.001094
739.000000, 0.000991
738.000000, 0.001333
737.000000, 0.000048
736.000000, -0.000205
735.000000, -0.001064
734.000000, -0.001057
733.000000, -0.000529
732.000000, 0.000632
731.000000, 0.000644
730.000000, -0.000590
729.000000, -0.000668
728.000000, -0.000152
727.000000, 0.000324
726.000000, 0.000035
725.000000, 0.000689
724.000000, 0.000296
723.000000, 0.000736
722.000000, 0.000723
721.000000, 0.000504
720.000000, 0.000442
719.000000, 0.000993
718.000000, 0.000275
717.000000, -0.000943
716.000000, -0.001131
715.000000, 0.000371
714.000000, 0.001385
713.000000, -0.000044
712.000000, -0.000380
711.000000, 0.000703
710.000000, 0.000455
709.000000, 0.000183
708.000000, 0.000665
707.000000, 0.000528
706.000000, 0.000029
705.000000, -0.000891
704.000000, -0.000844
703.000000, 0.000212
702.000000, -0.000471
701.000000, 0.000356
700.000000, 0.000725
699.000000, 0.000372
698.000000, -0.000281
697.000000, 0.000008
696.000000, 0.000450
695.000000, 0.000193
694.000000, -0.000510
693.000000, -0.000268
692.000000, 0.000236
691.000000, 0.000036
690.000000, 0.000262
689.000000, 0.000576
688.000000, 0.000326
687.000000, 0.000865
686.000000, 0.000335
685.000000, -0.000227
684.000000, 0.000040
683.000000, 0.000428
682.000000, 0.001047
681.000000, 0.001155
680.000000, 0.000808
679.000000, 0.000777
678.000000, 0.000077
677.000000, 0.000703
676.000000, 0.000832
675.000000, -0.000183
674.000000, -0.000265
673.000000, 0.000561
672.000000, 0.001037
671.000000, 0.000255
670.000000, -0.000181
669.000000, 0.001077
668.000000, 0.000884
667.000000, -0.000035
666.000000, 0.000335
665.000000, 0.000104
664.000000, -0.000103
663.000000, 0.000375
662.000000, 0.000362
661.000000, 0.000573
660.000000, 0.000114
659.000000, -0.000606
658.000000, -0.000102
657.000000, -0.000123
656.000000, 0.000012
655.000000, 0.000441
654.000000, 0.000569
653.000000, -0.000071
652.000000, 0.000441
651.000000, 0.000311
650.000000, 0.000828
649.000000, 0.000516
648.000000, 0.000935
647.000000, 0.001197
646.000000, 0.000537
645.000000, -0.000018
644.000000, 0.000645
643.000000, -0.000060
642.000000, 0.000608
641.000000, 0.000514
640.000000, 0.000665
639.000000, -0.000085
638.000000, 0.000593
637.000000, 0.001405
636.000000, 0.000369
635.000000, 0.000814
634.000000, 0.001009
633.000000, 0.000207
632.000000, -0.000839
631.000000, -0.000312
630.000000, 0.000512
629.000000, 0.000009
628.000000, 0.000303
627.000000, 0.000124
626.000000, 0.000010
625.000000, 0.000473
624.000000, 0.001060
623.000000, 0.001253
622.000000, 0.001058
621.000000, -0.000425
620.000000, 0.000049
619.000000, 0.000646
618.000000, 0.001382
617.000000, 0.000078
616.000000, 0.000568
615.000000, 0.000150
614.000000, 0.001226
613.000000, 0.001074
612.000000, 0.000273
611.000000, -0.000514
610.000000, 0.000644
609.000000, 0.000997
608.000000, 0.000640
607.000000, 0.001692
606.000000, 0.000597
605.000000, 0.000322
604.000000, 0.000297
603.000000, 0.000184
602.000000, -0.000138
601.000000, 0.001101
600.000000, 0.000176
599.000000, -0.000310
598.000000, -0.000484
597.000000, -0.000063
596.000000, 0.000514
595.000000, 0.000224
594.000000, -0.000311
593.000000, 0.000098
592.000000, 0.000637
591.000000, -0.000112
590.000000, 0.000264
589.000000, 0.000466
588.000000, -0.000036
587.000000, 0.000542
586.000000, 0.000630
585.000000, 0.000552
584.000000, -0.000295
583.000000, -0.000972
582.000000, -0.000294
581.000000, 0.000117
580.000000, 0.001707
579.000000, 0.000109
578.000000, -0.000230
577.000000, 0.000835
576.000000, -0.000086
575.000000, 0.000167
574.000000, 0.000025
573.000000, 0.000857
572.000000, 0.000706
571.000000, -0.000009
570.000000, -0.000210
569.000000, 0.000054
568.000000, 0.000061
567.000000, 0.000789
566.000000, 0.000075
565.000000, 0.001526
564.000000, -0.000231
563.000000, 0.000613
562.000000, 0.001168
561.000000, -0.000083
560.000000, 0.000655
559.000000, 0.000585
558.000000, 0.001236
557.000000, 0.001786
556.000000, -0.000096
555.000000, 0.001271
554.000000, 0.001332
553.000000, 0.000543
552.000000, 0.000315
551.000000, 0.000599
550.000000, 0.001144
549.000000, 0.001017
548.000000, 0.000929
547.000000, 0.001080
546.000000, 0.001292
545.000000, 0.001237
544.000000, 0.001340
543.000000, 0.001436
542.000000, 0.000570
541.000000, 0.000114
540.000000, 0.000298
539.000000, 0.000944
538.000000, -0.000087
537.000000, 0.000710
536.000000, 0.000856
535.000000, 0.000915
534.000000, 0.001115
533.000000, 0.001056
532.000000, 0.000415
531.000000, -0.000166
530.000000, 0.000909
529.000000, 0.000754
528.000000, 0.001420
527.000000, 0.000801
526.000000, 0.002074
525.000000, 0.000988
524.000000, 0.001574
523.000000, 0.002294
522.000000, 0.002235
521.000000, 0.002290
520.000000, 0.003425
519.000000, 0.004794
518.000000, 0.006281
517.000000, 0.010110
516.000000, 0.015462
515.000000, 0.020031
514.000000, 0.022169
513.000000, 0.023986
512.000000, 0.024322
511.000000, 0.022769
510.000000, 0.022096
509.000000, 0.020249
508.000000, 0.016386
507.000000, 0.015143
506.000000, 0.014863
505.000000, 0.013377
504.000000, 0.012249
503.000000, 0.013339
502.000000, 0.011870
501.000000, 0.011051
500.000000, 0.010455
499.000000, 0.009547
498.000000, 0.010018
497.000000, 0.009889
496.000000, 0.009974
495.000000, 0.009546
494.000000, 0.011290
493.000000, 0.011938
492.000000, 0.011663
491.000000, 0.012528
490.000000, 0.013384
489.000000, 0.014080
488.000000, 0.014987
487.000000, 0.016169
486.000000, 0.016404
485.000000, 0.017514
484.000000, 0.018270
483.000000, 0.019155
482.000000, 0.019657
481.000000, 0.020744
480.000000, 0.019976
479.000000, 0.018444
478.000000, 0.018163
477.000000, 0.018104
476.000000, 0.017281
475.000000, 0.016084
474.000000, 0.015967
473.000000, 0.015587
472.000000, 0.014363
471.000000, 0.014179
470.000000, 0.013446
469.000000, 0.013517
468.000000, 0.013624
467.000000, 0.012262
466.000000, 0.012822
465.000000, 0.013683
464.000000, 0.012355
463.000000, 0.011951
462.000000, 0.011729
461.000000, 0.011066
460.000000, 0.010630
459.000000, 0.011252
458.000000, 0.010446
457.000000, 0.010142
456.000000, 0.010017
455.000000, 0.009697
454.000000, 0.010452
453.000000, 0.010312
452.000000, 0.009895
451.000000, 0.010131
450.000000, 0.010265
449.000000, 0.010756
448.000000, 0.011140
447.000000, 0.010627
446.000000, 0.010559
445.000000, 0.011559
444.000000, 0.011103
443.000000, 0.010556
442.000000, 0.011114
441.000000, 0.011242
440.000000, 0.011091
439.000000, 0.011231
438.000000, 0.012225
437.000000, 0.012827
436.000000, 0.013380
435.000000, 0.012924
434.000000, 0.012014
433.000000, 0.013027
432.000000, 0.014061
431.000000, 0.014455
430.000000, 0.014208
429.000000, 0.014003
428.000000, 0.014761
427.000000, 0.015373
426.000000, 0.015592
425.000000, 0.015071
424.000000, 0.014581
423.000000, 0.014779
422.000000, 0.014399
421.000000, 0.014641
420.000000, 0.015122
419.000000, 0.014932
418.000000, 0.014882
417.000000, 0.015498
416.000000, 0.014720
415.000000, 0.013769
414.000000, 0.014714
413.000000, 0.015369
412.000000, 0.014550
411.000000, 0.014056
410.000000, 0.014369
409.000000, 0.014082
408.000000, 0.014675
407.000000, 0.014221
406.000000, 0.014724
405.000000, 0.015151
404.000000, 0.014513
403.000000, 0.014239
402.000000, 0.014413
401.000000, 0.014232
400.000000, 0.014029
399.000000, 0.014368
398.000000, 0.014673
397.000000, 0.014360
396.000000, 0.014739
395.000000, 0.013816
394.000000, 0.013968
393.000000, 0.013846
392.000000, 0.014218
391.000000, 0.014223
390.000000, 0.013848
389.000000, 0.013970
388.000000, 0.014066
387.000000, 0.014560
386.000000, 0.014904
385.000000, 0.014744
384.000000, 0.014679
383.000000, 0.014277
382.000000, 0.015248
381.000000, 0.014634
380.000000, 0.015258
379.000000, 0.016051
378.000000, 0.015347
377.000000, 0.016046
376.000000, 0.016464
375.000000, 0.016150
374.000000, 0.015725
373.000000, 0.016079
372.000000, 0.015976
371.000000, 0.015952
370.000000, 0.016155
369.000000, 0.016332
368.000000, 0.016733
367.000000, 0.015834
366.000000, 0.014983
365.000000, 0.015546
364.000000, 0.015686
363.000000, 0.016995
362.000000, 0.016919
361.000000, 0.016557
360.000000, 0.016196
359.000000, 0.016326
358.000000, 0.016741
357.000000, 0.017607
356.000000, 0.017537
355.000000, 0.017577
354.000000, 0.017153
353.000000, 0.018294
352.000000, 0.017822
351.000000, 0.018798
350.000000, 0.018386
349.000000, 0.018852
348.000000, 0.019710
347.000000, 0.020497
346.000000, 0.019265
345.000000, 0.019800
344.000000, 0.019951
343.000000, 0.020041
342.000000, 0.021625
341.000000, 0.022822
340.000000, 0.021331
339.000000, 0.021674
338.000000, 0.023186
337.000000, 0.022928
336.000000, 0.023313
335.000000, 0.024828
334.000000, 0.024276
333.000000, 0.024837
332.000000, 0.025717
331.000000, 0.027471
330.000000, 0.026732
329.000000, 0.028508
328.000000, 0.028213
327.000000, 0.030223
326.000000, 0.031259
325.000000, 0.030662
324.000000, 0.032535
323.000000, 0.033409
322.000000, 0.035511
321.000000, 0.035324
320.000000, 0.038339
319.000000, 0.038278
318.000000, 0.038163
317.000000, 0.038975
316.000000, 0.040494
315.000000, 0.040591
314.000000, 0.040440
313.000000, 0.041285
312.000000, 0.041607
311.000000, 0.041220
310.000000, 0.043157
309.000000, 0.043343
308.000000, 0.044308
307.000000, 0.044309
306.000000, 0.045506
305.000000, 0.045603
304.000000, 0.048104
303.000000, 0.045835
302.000000, 0.046878
301.000000, 0.048166
300.000000, 0.048168
