  440.0000	              141
  441.0000	              119
  442.0000	              129
  443.0000	              176
  444.0000	              160
  445.0000	              195
  446.0000	              168
  447.0000	              185
  448.0000	              191
  449.0000	              178
  450.0000	              160
  451.0000	              194
  452.0000	              233
  453.0000	              249
  454.0000	              289
  455.0000	              339
  456.0000	              391
  457.0000	              502
  458.0000	              617
  459.0000	              624
  460.0000	              708
  461.0000	              752
  462.0000	              843
  463.0000	              903
  464.0000	              795
  465.0000	              665
  466.0000	              530
  467.0000	              450
  468.0000	              450
  469.0000	              354
  470.0000	              358
  471.0000	              440
  472.0000	              479
  473.0000	              552
  474.0000	              595
  475.0000	              647
  476.0000	              779
  477.0000	              847
  478.0000	             1015
  479.0000	             1140
  480.0000	             1412
  481.0000	             1600
  482.0000	             1809
  483.0000	             2031
  484.0000	             2430
  485.0000	             2590
  486.0000	             2933
  487.0000	             3428
  488.0000	             3678
  489.0000	             4415
  490.0000	             4799
  491.0000	             5718
  492.0000	             6400
  493.0000	             7133
  494.0000	             8457
  495.0000	             9785
  496.0000	            11940
  497.0000	            14107
  498.0000	            17001
  499.0000	            21016
  500.0000	            26118
  501.0000	            31900
  502.0000	            39982
  503.0000	            49159
  504.0000	            62308
  505.0000	            79594
  506.0000	           102205
  507.0000	           128002
  508.0000	           164203
  509.0000	           208232
  510.0000	           261048
  511.0000	           325094
  512.0000	           384090
  513.0000	           427907
  514.0000	           427547
  515.0000	           384806
  516.0000	           314481
  517.0000	           245199
  518.0000	           186166
  519.0000	           138620
  520.0000	           106020
  521.0000	            80997
  522.0000	            64281
  523.0000	            50421
  524.0000	            40524
  525.0000	            32343
  526.0000	            25821
  527.0000	            20849
  528.0000	            17625
  529.0000	            14484
  530.0000	            11824
  531.0000	            10484
  532.0000	             9147
  533.0000	             8065
  534.0000	             7424
  535.0000	             6641
  536.0000	             6194
  537.0000	             5954
  538.0000	             6104
  539.0000	             5482
  540.0000	             5847
  541.0000	             5440
  542.0000	             5315
  543.0000	             5097
  544.0000	             5187
  545.0000	             5078
  546.0000	             4935
  547.0000	             4890
  548.0000	             4586
  549.0000	             4585
  550.0000	             4451
  551.0000	             4141
  552.0000	             3687
  553.0000	             3516
  554.0000	             3273
  555.0000	             3048
  556.0000	             2823
  557.0000	             2496
  558.0000	             2460
  559.0000	             2237
  560.0000	             2341
  561.0000	             2132
  562.0000	             2080
  563.0000	             2000
  564.0000	             1984
  565.0000	             1835
  566.0000	             1798
  567.0000	             1844
  568.0000	             1663
  569.0000	             1748
  570.0000	             1601
  571.0000	             1678
  572.0000	             1571
  573.0000	             1430
  574.0000	             1446
  575.0000	             1480
  576.0000	             1250
  577.0000	             1256
  578.0000	             1212
  579.0000	             1061
  580.0000	             1011
  581.0000	             1122
  582.0000	              925
  583.0000	              840
  584.0000	              818
  585.0000	              730
  586.0000	              697
  587.0000	              760
  588.0000	              734
  589.0000	              661
  590.0000	              667
  591.0000	              577
  592.0000	              616
  593.0000	              613
  594.0000	              560
  595.0000	              507
  596.0000	              532
  597.0000	              487
  598.0000	              484
  599.0000	              493
  600.0000	              506
  601.0000	              434
  602.0000	              456
  603.0000	              383
  604.0000	              453
  605.0000	              396
  606.0000	              355
  607.0000	              371
  608.0000	              390
  609.0000	              325
  610.0000	              407
  611.0000	              380
  612.0000	              341
  613.0000	              348
  614.0000	              375
  615.0000	              382
  616.0000	              326
  617.0000	              325
  618.0000	              342
  619.0000	              378
  620.0000	              338
  621.0000	              331
  622.0000	              315
  623.0000	              332
  624.0000	              319
  625.0000	              335
  626.0000	              306
  627.0000	              301
  628.0000	              302
  629.0000	              358
  630.0000	              332
  631.0000	              289
  632.0000	              284
  633.0000	              295
  634.0000	              313
  635.0000	              269
  636.0000	              264
  637.0000	              270
  638.0000	              245
  639.0000	              277
  640.0000	              290
  641.0000	              262
  642.0000	              270
  643.0000	              303
  644.0000	              279
  645.0000	              270
  646.0000	              297
  647.0000	              282
  648.0000	              259
  649.0000	              265
  650.0000	              234
  651.0000	              246
  652.0000	              202
  653.0000	              179
  654.0000	              268
  655.0000	              270
  656.0000	              275
  657.0000	              250
  658.0000	              168
  659.0000	              213
  660.0000	              207
  661.0000	              219
  662.0000	              230
  663.0000	              183
  664.0000	              242
  665.0000	              180
  666.0000	              215
  667.0000	              187
  668.0000	              228
  669.0000	              202
  670.0000	              193
  671.0000	              185
  672.0000	              179
  673.0000	              174
  674.0000	              187
  675.0000	              262
  676.0000	              195
  677.0000	              225
  678.0000	              197
  679.0000	              160
  680.0000	              184
  681.0000	              205
  682.0000	              244
  683.0000	              160
  684.0000	              206
  685.0000	              162
  686.0000	              190
  687.0000	              190
  688.0000	              186
  689.0000	              143
  690.0000	              144
  691.0000	              183
  692.0000	              183
  693.0000	              155
  694.0000	              171
  695.0000	              173
  696.0000	              182
  697.0000	              184
  698.0000	              114
  699.0000	              182
  700.0000	              175
  701.0000	              174
  702.0000	              164
  703.0000	              176
  704.0000	              183
  705.0000	              146
  706.0000	              180
  707.0000	              161
  708.0000	              163
  709.0000	              202
  710.0000	              130
  711.0000	              187
  712.0000	              162
  713.0000	              131
  714.0000	              129
  715.0000	              124
  716.0000	              123
  717.0000	              153
  718.0000	              127
  719.0000	              111
  720.0000	               99
  721.0000	              136
  722.0000	              109
  723.0000	               96
  724.0000	              145
  725.0000	              103
  726.0000	              130
  727.0000	              102
  728.0000	               88
  729.0000	              123
  730.0000	              112
  731.0000	              177
  732.0000	              107
  733.0000	               98
  734.0000	              120
  735.0000	              115
  736.0000	              138
  737.0000	              107
  738.0000	              117
  739.0000	              114
  740.0000	               97
  741.0000	              108
  742.0000	              100
  743.0000	              138
  744.0000	               89
  745.0000	              110
  746.0000	              119
  747.0000	              121
  748.0000	               78
  749.0000	               93
  750.0000	              109
  751.0000	              121
  752.0000	              127
  753.0000	              122
  754.0000	              100
  755.0000	              112
  756.0000	               75
  757.0000	               92
  758.0000	               78
  759.0000	               91
  760.0000	               90
  761.0000	              115
  762.0000	               70
  763.0000	               75
  764.0000	               88
  765.0000	               82
  766.0000	               89
  767.0000	               77
  768.0000	               96
  769.0000	               77
  770.0000	               90
  771.0000	              104
  772.0000	               76
  773.0000	               71
  774.0000	               86
  775.0000	               89
  776.0000	               57
  777.0000	               80
  778.0000	              103
  779.0000	               76
  780.0000	               76
  781.0000	               76
  782.0000	               61
  783.0000	               69
  784.0000	               71
  785.0000	               62
  786.0000	               70
  787.0000	               74
  788.0000	               76
  789.0000	               68
  790.0000	               84
  791.0000	               57
  792.0000	               72
  793.0000	               56
  794.0000	               57
  795.0000	               56
  796.0000	              103
  797.0000	               64
  798.0000	               54
  799.0000	               84
  800.0000	               69
