nm, A
800.000000, -0.000829
799.000000, -0.001538
798.000000, -0.000478
797.000000, -0.001924
796.000000, -0.000627
795.000000, -0.000372
794.000000, -0.000575
793.000000, 0.000346
792.000000, -0.000520
791.000000, -0.000220
790.000000, -0.001175
789.000000, -0.000510
788.000000, 0.000101
787.000000, -0.000819
786.000000, -0.000992
785.000000, -0.000463
784.000000, -0.001124
783.000000, -0.000309
782.000000, -0.000290
781.000000, -0.000854
780.000000, -0.001026
779.000000, -0.001323
778.000000, -0.001131
777.000000, -0.001033
776.000000, -0.001152
775.000000, -0.001327
774.000000, -0.000532
773.000000, -0.000779
772.000000, -0.000677
771.000000, -0.000331
770.000000, 0.000346
769.000000, -0.001180
768.000000, -0.000132
767.000000, -0.000194
766.000000, -0.000448
765.000000, 0.000135
764.000000, -0.000470
763.000000, 0.000202
762.000000, 0.000421
761.000000, -0.000408
760.000000, -0.001561
759.000000, -0.000516
758.000000, -0.000370
757.000000, -0.000608
756.000000, -0.000940
755.000000, -0.000945
754.000000, -0.001193
753.000000, -0.000950
752.000000, -0.001593
751.000000, -0.000509
750.000000, 0.000149
749.000000, -0.000763
748.000000, -0.001512
747.000000, -0.000368
746.000000, -0.000501
745.000000, -0.000855
744.000000, -0.000625
743.000000, -0.001587
742.000000, -0.000365
741.000000, -0.000863
740.000000, -0.000440
739.000000, 0.001108
738.000000, 0.001084
737.000000, -0.000258
736.000000, 0.000451
735.000000, 0.000184
734.000000, 0.000130
733.000000, -0.000485
732.000000, -0.001438
731.000000, 0.000040
730.000000, -0.000528
729.000000, -0.000873
728.000000, 0.000092
727.000000, -0.000249
726.000000, -0.000769
725.000000, -0.000276
724.000000, -0.001217
723.000000, -0.001131
722.000000, -0.000627
721.000000, 0.000356
720.000000, -0.000238
719.000000, -0.000636
718.000000, -0.000928
717.000000, -0.001625
716.000000, -0.000839
715.000000, -0.000762
714.000000, -0.000421
713.000000, -0.000386
712.000000, -0.001119
711.000000, -0.001435
710.000000, -0.001040
709.000000, 0.000319
708.000000, -0.000203
707.000000, -0.000752
706.000000, -0.000522
705.000000, -0.000338
704.000000, -0.000358
703.000000, -0.000761
702.000000, -0.000953
701.000000, -0.000435
700.000000, -0.000841
699.000000, -0.001120
698.000000, -0.001250
697.000000, -0.002009
696.000000, -0.000421
695.000000, 0.000643
694.000000, -0.000046
693.000000, -0.000170
692.000000, -0.000900
691.000000, -0.000273
690.000000, -0.000502
689.000000, -0.000814
688.000000, -0.000614
687.000000, -0.000690
686.000000, -0.000355
685.000000, -0.000914
684.000000, -0.001012
683.000000, -0.000562
682.000000, 0.000080
681.000000, 0.000667
680.000000, 0.000211
679.000000, 0.000028
678.000000, -0.000077
677.000000, -0.001231
676.000000, -0.001739
675.000000, -0.001086
674.000000, -0.001307
673.000000, -0.000488
672.000000, 0.000348
671.000000, -0.000388
670.000000, -0.000859
669.000000, -0.000974
668.000000, -0.000572
667.000000, -0.000886
666.000000, -0.000191
665.000000, -0.000603
664.000000, -0.000665
663.000000, 0.000120
662.000000, -0.000398
661.000000, -0.001066
660.000000, -0.001116
659.000000, -0.000409
658.000000, 0.000332
657.000000, 0.000060
656.000000, -0.000076
655.000000, -0.000065
654.000000, -0.000411
653.000000, -0.000408
652.000000, -0.000688
651.000000, -0.001152
650.000000, -0.000471
649.000000, -0.000302
648.000000, -0.000214
647.000000, -0.000416
646.000000, 0.000271
645.000000, 0.000260
644.000000, 0.000436
643.000000, 0.000305
642.000000, 0.000079
641.000000, -0.000187
640.000000, -0.000085
639.000000, -0.000125
638.000000, -0.000168
637.000000, 0.000004
636.000000, -0.000148
635.000000, -0.000425
634.000000, -0.000365
633.000000, 0.000231
632.000000, 0.000320
631.000000, -0.000570
630.000000, -0.000946
629.000000, 0.000327
628.000000, 0.000593
627.000000, 0.000525
626.000000, 0.000026
625.000000, 0.000390
624.000000, 0.000624
623.000000, 0.000265
622.000000, -0.000064
621.000000, 0.000058
620.000000, 0.000043
619.000000, -0.000959
618.000000, -0.000562
617.000000, -0.000309
616.000000, 0.000519
615.000000, 0.000912
614.000000, -0.000321
613.000000, 0.000058
612.000000, -0.000194
611.000000, -0.000185
610.000000, 0.000568
609.000000, -0.000151
608.000000, -0.000240
607.000000, -0.000022
606.000000, -0.001301
605.000000, -0.000305
604.000000, 0.000824
603.000000, 0.000562
602.000000, 0.000477
601.000000, 0.000112
600.000000, 0.000731
599.000000, 0.000348
598.000000, 0.000160
597.000000, 0.000368
596.000000, 0.001573
595.000000, 0.000474
594.000000, -0.000219
593.000000, 0.000327
592.000000, -0.000279
591.000000, 0.000421
590.000000, -0.000153
589.000000, 0.000058
588.000000, -0.000341
587.000000, 0.000605
586.000000, 0.000097
585.000000, 0.000353
584.000000, 0.000246
583.000000, 0.000131
582.000000, -0.000053
581.000000, 0.000153
580.000000, 0.000963
579.000000, -0.000721
578.000000, 0.000255
577.000000, 0.000474
576.000000, -0.000061
575.000000, -0.000191
574.000000, -0.000015
573.000000, -0.000835
572.000000, -0.000384
571.000000, 0.001228
570.000000, -0.000246
569.000000, 0.000749
568.000000, 0.000341
567.000000, 0.000832
566.000000, 0.000541
565.000000, 0.000359
564.000000, 0.000590
563.000000, 0.000240
562.000000, -0.000232
561.000000, -0.000425
560.000000, -0.000248
559.000000, 0.000586
558.000000, 0.001662
557.000000, 0.000682
556.000000, -0.000379
555.000000, -0.000685
554.000000, 0.000740
553.000000, -0.000653
552.000000, 0.000879
551.000000, -0.000062
550.000000, 0.000315
549.000000, -0.000588
548.000000, 0.001719
547.000000, 0.000947
546.000000, 0.001599
545.000000, 0.000885
544.000000, 0.001480
543.000000, 0.001205
542.000000, 0.000278
541.000000, 0.001639
540.000000, 0.001301
539.000000, 0.000565
538.000000, -0.000064
537.000000, 0.000888
536.000000, 0.002126
535.000000, 0.000968
534.000000, 0.001085
533.000000, 0.000451
532.000000, 0.000449
531.000000, 0.001188
530.000000, 0.001566
529.000000, 0.002191
528.000000, 0.001036
527.000000, 0.000794
526.000000, 0.000875
525.000000, 0.002256
524.000000, 0.002210
523.000000, 0.001947
522.000000, 0.002010
521.000000, 0.002216
520.000000, 0.002022
519.000000, 0.002941
518.000000, 0.005137
517.000000, 0.007987
516.000000, 0.011424
515.000000, 0.018227
514.000000, 0.025976
513.000000, 0.036154
512.000000, 0.047040
511.000000, 0.056315
510.000000, 0.061666
509.000000, 0.061551
508.000000, 0.058547
507.000000, 0.054021
506.000000, 0.048919
505.000000, 0.043599
504.000000, 0.039539
503.000000, 0.035181
502.000000, 0.031167
501.000000, 0.028185
500.000000, 0.028310
499.000000, 0.026098
498.000000, 0.026055
497.000000, 0.024926
496.000000, 0.024568
495.000000, 0.024869
494.000000, 0.023935
493.000000, 0.024806
492.000000, 0.025682
491.000000, 0.027573
490.000000, 0.029143
489.000000, 0.029929
488.000000, 0.031459
487.000000, 0.034288
486.000000, 0.036022
485.000000, 0.037961
484.000000, 0.039624
483.000000, 0.041940
482.000000, 0.043955
481.000000, 0.044891
480.000000, 0.044179
479.000000, 0.042779
478.000000, 0.043058
477.000000, 0.041905
476.000000, 0.041741
475.000000, 0.040067
474.000000, 0.038664
473.000000, 0.037940
472.000000, 0.036175
471.000000, 0.035547
470.000000, 0.034126
469.000000, 0.033158
468.000000, 0.031512
467.000000, 0.030393
466.000000, 0.029965
465.000000, 0.030576
464.000000, 0.029787
463.000000, 0.028136
462.000000, 0.028014
461.000000, 0.027508
460.000000, 0.027952
459.000000, 0.026890
458.000000, 0.027564
457.000000, 0.027335
456.000000, 0.026694
455.000000, 0.026254
454.000000, 0.025807
453.000000, 0.026187
452.000000, 0.026606
451.000000, 0.025856
450.000000, 0.025070
449.000000, 0.025659
448.000000, 0.026575
447.000000, 0.026673
446.000000, 0.026206
445.000000, 0.026064
444.000000, 0.026625
443.000000, 0.026592
442.000000, 0.026606
441.000000, 0.026657
440.000000, 0.027214
439.000000, 0.027994
438.000000, 0.029236
437.000000, 0.029288
436.000000, 0.029316
435.000000, 0.031057
434.000000, 0.032047
433.000000, 0.031836
432.000000, 0.032473
431.000000, 0.032734
430.000000, 0.032997
429.000000, 0.033490
428.000000, 0.033745
427.000000, 0.035238
426.000000, 0.035675
425.000000, 0.034683
424.000000, 0.035389
423.000000, 0.036266
422.000000, 0.035364
421.000000, 0.035432
420.000000, 0.036584
419.000000, 0.036799
418.000000, 0.036683
417.000000, 0.036529
416.000000, 0.035797
415.000000, 0.036352
414.000000, 0.036446
413.000000, 0.036835
412.000000, 0.036828
411.000000, 0.034935
410.000000, 0.035290
409.000000, 0.036334
408.000000, 0.035930
407.000000, 0.036321
406.000000, 0.036874
405.000000, 0.036145
404.000000, 0.035969
403.000000, 0.036466
402.000000, 0.035722
401.000000, 0.035866
400.000000, 0.036180
399.000000, 0.035772
398.000000, 0.036608
397.000000, 0.035718
396.000000, 0.035353
395.000000, 0.035814
394.000000, 0.035588
393.000000, 0.036495
392.000000, 0.035704
391.000000, 0.035117
390.000000, 0.035288
389.000000, 0.036202
388.000000, 0.036624
387.000000, 0.036642
386.000000, 0.035672
385.000000, 0.035179
384.000000, 0.035062
383.000000, 0.035790
382.000000, 0.036083
381.000000, 0.035972
380.000000, 0.036073
379.000000, 0.036773
378.000000, 0.035685
377.000000, 0.035053
376.000000, 0.035748
375.000000, 0.035706
374.000000, 0.036071
373.000000, 0.035201
372.000000, 0.036023
371.000000, 0.036355
370.000000, 0.036265
369.000000, 0.036615
368.000000, 0.037146
367.000000, 0.036459
366.000000, 0.037245
365.000000, 0.037242
364.000000, 0.037229
363.000000, 0.037222
362.000000, 0.037822
361.000000, 0.038045
360.000000, 0.037864
359.000000, 0.038510
358.000000, 0.039285
357.000000, 0.039241
356.000000, 0.039431
355.000000, 0.039730
354.000000, 0.038915
353.000000, 0.040218
352.000000, 0.040407
351.000000, 0.040948
350.000000, 0.041256
349.000000, 0.041620
348.000000, 0.043627
347.000000, 0.044892
346.000000, 0.044722
345.000000, 0.045963
344.000000, 0.046998
343.000000, 0.047671
342.000000, 0.049127
341.000000, 0.050625
340.000000, 0.050741
339.000000, 0.052598
338.000000, 0.053020
337.000000, 0.054146
336.000000, 0.054378
335.000000, 0.054891
334.000000, 0.056368
333.000000, 0.057877
332.000000, 0.060123
331.000000, 0.062680
330.000000, 0.062475
329.000000, 0.065269
328.000000, 0.067710
327.000000, 0.070171
326.000000, 0.071146
325.000000, 0.073977
324.000000, 0.077525
323.000000, 0.079726
322.000000, 0.082078
321.000000, 0.085558
320.000000, 0.087460
319.000000, 0.089391
318.000000, 0.091468
317.000000, 0.095122
316.000000, 0.094639
315.000000, 0.096241
314.000000, 0.096707
313.000000, 0.099819
312.000000, 0.100284
311.000000, 0.101222
310.000000, 0.101508
309.000000, 0.103905
308.000000, 0.105531
307.000000, 0.106876
306.000000, 0.108455
305.000000, 0.110950
304.000000, 0.111688
303.000000, 0.112850
302.000000, 0.112773
301.000000, 0.114961
300.000000, 0.115458
