nm, A
800.000000, -0.000457
799.000000, -0.001398
798.000000, -0.001462
797.000000, -0.001094
796.000000, -0.000770
795.000000, 0.000689
794.000000, -0.000837
793.000000, -0.000582
792.000000, -0.000028
791.000000, -0.001537
790.000000, -0.000809
789.000000, 0.000320
788.000000, -0.001607
787.000000, -0.000431
786.000000, 0.000316
785.000000, -0.000591
784.000000, -0.000448
783.000000, -0.000803
782.000000, -0.000630
781.000000, -0.000210
780.000000, -0.000272
779.000000, -0.001463
778.000000, 0.000198
777.000000, 0.001627
776.000000, -0.000549
775.000000, 0.000571
774.000000, -0.000827
773.000000, -0.000617
772.000000, 0.000127
771.000000, -0.000456
770.000000, -0.000495
769.000000, -0.001239
768.000000, -0.000839
767.000000, 0.000127
766.000000, -0.001903
765.000000, -0.000575
764.000000, -0.000025
763.000000, 0.000379
762.000000, -0.000494
761.000000, -0.001082
760.000000, -0.000784
759.000000, 0.000753
758.000000, -0.000159
757.000000, -0.001428
756.000000, -0.000359
755.000000, -0.000861
754.000000, 0.000024
753.000000, -0.001762
752.000000, -0.001838
751.000000, -0.001269
750.000000, -0.000024
749.000000, -0.001410
748.000000, -0.001602
747.000000, -0.000757
746.000000, -0.000682
745.000000, -0.001432
744.000000, -0.000544
743.000000, -0.001452
742.000000, -0.001700
741.000000, -0.000945
740.000000, 0.000139
739.000000, -0.000278
738.000000, -0.000547
737.000000, -0.001081
736.000000, -0.000266
735.000000, 0.000050
734.000000, -0.000109
733.000000, -0.001131
732.000000, -0.001188
731.000000, -0.001032
730.000000, -0.001029
729.000000, -0.000915
728.000000, -0.000380
727.000000, -0.000037
726.000000, 0.000553
725.000000, 0.000125
724.000000, -0.000896
723.000000, -0.001098
722.000000, -0.000990
721.000000, 0.000035
720.000000, 0.000425
719.000000, -0.000434
718.000000, 0.000065
717.000000, -0.000984
716.000000, -0.001411
715.000000, -0.001996
714.000000, -0.001284
713.000000, -0.000496
712.000000, -0.000523
711.000000, -0.001253
710.000000, -0.001096
709.000000, -0.001182
708.000000, -0.000365
707.000000, 0.000042
706.000000, 0.000467
705.000000, -0.000739
704.000000, -0.001482
703.000000, -0.000142
702.000000, -0.000312
701.000000, -0.001039
700.000000, -0.001630
699.000000, -0.002282
698.000000, -0.001709
697.000000, -0.000331
696.000000, 0.000303
695.000000, -0.000310
694.000000, -0.000864
693.000000, -0.001171
692.000000, -0.000390
691.000000, 0.000148
690.000000, -0.000313
689.000000, -0.000694
688.000000, -0.000128
687.000000, -0.000373
686.000000, -0.001027
685.000000, -0.000894
684.000000, -0.001001
683.000000, -0.000886
682.000000, -0.001162
681.000000, -0.000916
680.000000, -0.000853
679.000000, -0.001762
678.000000, -0.001673
677.000000, -0.000749
676.000000, -0.000123
675.000000, -0.000258
674.000000, -0.001309
673.000000, -0.001032
672.000000, -0.001795
671.000000, -0.001936
670.000000, -0.000837
669.000000, -0.000651
668.000000, -0.000401
667.000000, -0.000416
666.000000, 0.000057
665.000000, -0.001112
664.000000, -0.001357
663.000000, -0.000336
662.000000, -0.000779
661.000000, -0.001550
660.000000, -0.001177
659.000000, -0.000997
658.000000, -0.001354
657.000000, -0.000539
656.000000, -0.000330
655.000000, -0.000371
654.000000, -0.000398
653.000000, 0.000118
652.000000, 0.000216
651.000000, -0.000450
650.000000, -0.001288
649.000000, -0.000939
648.000000, 0.000075
647.000000, -0.001192
646.000000, -0.001645
645.000000, -0.001320
644.000000, -0.001415
643.000000, -0.000420
642.000000, -0.000025
641.000000, -0.000825
640.000000, -0.000450
639.000000, 0.000251
638.000000, 0.000024
637.000000, -0.000052
636.000000, -0.001151
635.000000, -0.000869
634.000000, -0.000759
633.000000, -0.001541
632.000000, -0.000864
631.000000, -0.000550
630.000000, -0.001520
629.000000, -0.001338
628.000000, -0.000491
627.000000, 0.000006
626.000000, -0.000250
625.000000, 0.000063
624.000000, -0.000171
623.000000, -0.001977
622.000000, -0.001834
621.000000, -0.000888
620.000000, -0.001409
619.000000, -0.000284
618.000000, -0.000137
617.000000, -0.000893
616.000000, 0.000431
615.000000, 0.000614
614.000000, 0.000172
613.000000, 0.000149
612.000000, -0.001602
611.000000, -0.001062
610.000000, -0.000732
609.000000, -0.000591
608.000000, -0.000446
607.000000, -0.000578
606.000000, -0.001237
605.000000, -0.001733
604.000000, -0.001059
603.000000, -0.001596
602.000000, -0.000587
601.000000, -0.000124
600.000000, -0.000328
599.000000, 0.000324
598.000000, -0.001615
597.000000, -0.001101
596.000000, -0.000336
595.000000, -0.001977
594.000000, -0.001073
593.000000, -0.001085
592.000000, -0.001022
591.000000, -0.000754
590.000000, -0.000054
589.000000, -0.000766
588.000000, -0.000416
587.000000, -0.000611
586.000000, -0.000774
585.000000, -0.000215
584.000000, 0.000067
583.000000, -0.001291
582.000000, -0.001518
581.000000, -0.000987
580.000000, -0.000250
579.000000, 0.000251
578.000000, -0.000906
577.000000, 0.000002
576.000000, -0.000327
575.000000, 0.000593
574.000000, -0.000407
573.000000, -0.000412
572.000000, 0.000204
571.000000, -0.000089
570.000000, -0.000338
569.000000, 0.000028
568.000000, -0.000621
567.000000, -0.000549
566.000000, 0.000252
565.000000, 0.000299
564.000000, -0.000415
563.000000, -0.000490
562.000000, -0.000287
561.000000, -0.000540
560.000000, -0.000435
559.000000, -0.000275
558.000000, -0.000914
557.000000, -0.000376
556.000000, 0.000449
555.000000, -0.000709
554.000000, 0.000562
553.000000, 0.000734
552.000000, -0.000724
551.000000, 0.000169
550.000000, 0.000640
549.000000, 0.000488
548.000000, 0.000183
547.000000, -0.000671
546.000000, 0.001045
545.000000, 0.000206
544.000000, 0.000441
543.000000, 0.000201
542.000000, 0.000695
541.000000, 0.000490
540.000000, 0.000268
539.000000, -0.000440
538.000000, 0.000727
537.000000, -0.001030
536.000000, 0.000426
535.000000, 0.000502
534.000000, 0.000054
533.000000, 0.000750
532.000000, 0.000434
531.000000, 0.000117
530.000000, 0.000041
529.000000, 0.002066
528.000000, 0.000803
527.000000, 0.000955
526.000000, 0.000838
525.000000, 0.000777
524.000000, 0.001688
523.000000, 0.002765
522.000000, 0.002418
521.000000, 0.003732
520.000000, 0.005599
519.000000, 0.008669
518.000000, 0.012145
517.000000, 0.019775
516.000000, 0.032057
515.000000, 0.048637
514.000000, 0.069330
513.000000, 0.088768
512.000000, 0.102055
511.000000, 0.106344
510.000000, 0.101596
509.000000, 0.092012
508.000000, 0.080819
507.000000, 0.073127
506.000000, 0.063224
505.000000, 0.056441
504.000000, 0.052413
503.000000, 0.048143
502.000000, 0.044677
501.000000, 0.043799
500.000000, 0.042466
499.000000, 0.040276
498.000000, 0.039967
497.000000, 0.039840
496.000000, 0.039569
495.000000, 0.040435
494.000000, 0.041097
493.000000, 0.041980
492.000000, 0.041778
491.000000, 0.043452
490.000000, 0.046516
489.000000, 0.048742
488.000000, 0.052212
487.000000, 0.056530
486.000000, 0.060088
485.000000, 0.063150
484.000000, 0.066504
483.000000, 0.068750
482.000000, 0.069802
481.000000, 0.070489
480.000000, 0.070456
479.000000, 0.069268
478.000000, 0.067669
477.000000, 0.066160
476.000000, 0.064547
475.000000, 0.061177
474.000000, 0.059279
473.000000, 0.056925
472.000000, 0.054585
471.000000, 0.053267
470.000000, 0.051151
469.000000, 0.048866
468.000000, 0.048675
467.000000, 0.046625
466.000000, 0.045928
465.000000, 0.045020
464.000000, 0.043780
463.000000, 0.042122
462.000000, 0.041463
461.000000, 0.040826
460.000000, 0.040230
459.000000, 0.039885
458.000000, 0.039750
457.000000, 0.040120
456.000000, 0.039881
455.000000, 0.038722
454.000000, 0.038429
453.000000, 0.038889
452.000000, 0.039192
451.000000, 0.038736
450.000000, 0.038707
449.000000, 0.038230
448.000000, 0.038010
447.000000, 0.038685
446.000000, 0.038720
445.000000, 0.039429
444.000000, 0.040191
443.000000, 0.040580
442.000000, 0.040797
441.000000, 0.040133
440.000000, 0.041687
439.000000, 0.043867
438.000000, 0.045566
437.000000, 0.045693
436.000000, 0.046272
435.000000, 0.048067
434.000000, 0.049779
433.000000, 0.050681
432.000000, 0.050436
431.000000, 0.051290
430.000000, 0.053252
429.000000, 0.054072
428.000000, 0.054009
427.000000, 0.054848
426.000000, 0.055178
425.000000, 0.054744
424.000000, 0.055018
423.000000, 0.055275
422.000000, 0.055174
421.000000, 0.054967
420.000000, 0.055387
419.000000, 0.055033
418.000000, 0.053795
417.000000, 0.054495
416.000000, 0.054407
415.000000, 0.054056
414.000000, 0.054673
413.000000, 0.054573
412.000000, 0.054056
411.000000, 0.054909
410.000000, 0.055576
409.000000, 0.054883
408.000000, 0.054681
407.000000, 0.054309
406.000000, 0.054107
405.000000, 0.054905
404.000000, 0.054608
403.000000, 0.054666
402.000000, 0.055301
401.000000, 0.054508
400.000000, 0.054383
399.000000, 0.054477
398.000000, 0.054747
397.000000, 0.054802
396.000000, 0.054137
395.000000, 0.053552
394.000000, 0.054554
393.000000, 0.054359
392.000000, 0.054045
391.000000, 0.054320
390.000000, 0.053855
389.000000, 0.054958
388.000000, 0.055525
387.000000, 0.054783
386.000000, 0.055132
385.000000, 0.055374
384.000000, 0.055288
383.000000, 0.056160
382.000000, 0.056172
381.000000, 0.054769
380.000000, 0.055393
379.000000, 0.055417
378.000000, 0.056336
377.000000, 0.057324
376.000000, 0.057518
375.000000, 0.057691
374.000000, 0.057144
373.000000, 0.056475
372.000000, 0.057185
371.000000, 0.058038
370.000000, 0.057602
369.000000, 0.058141
368.000000, 0.058764
367.000000, 0.059410
366.000000, 0.059121
365.000000, 0.058493
364.000000, 0.059615
363.000000, 0.061326
362.000000, 0.060169
361.000000, 0.060015
360.000000, 0.061059
359.000000, 0.060976
358.000000, 0.061680
357.000000, 0.062722
356.000000, 0.063883
355.000000, 0.062404
354.000000, 0.064275
353.000000, 0.065339
352.000000, 0.066621
351.000000, 0.066985
350.000000, 0.066699
349.000000, 0.068646
348.000000, 0.069538
347.000000, 0.070977
346.000000, 0.072198
345.000000, 0.073480
344.000000, 0.075734
343.000000, 0.077262
342.000000, 0.079660
341.000000, 0.079468
340.000000, 0.081759
339.000000, 0.083189
338.000000, 0.084971
337.000000, 0.087305
336.000000, 0.089684
335.000000, 0.090499
334.000000, 0.092669
333.000000, 0.095182
332.000000, 0.098656
331.000000, 0.100878
330.000000, 0.103495
329.000000, 0.107394
328.000000, 0.109349
327.000000, 0.113540
326.000000, 0.118343
325.000000, 0.122294
324.000000, 0.127364
323.000000, 0.131821
322.000000, 0.137122
321.000000, 0.141733
320.000000, 0.144837
319.000000, 0.146946
318.000000, 0.147943
317.000000, 0.151008
316.000000, 0.155002
315.000000, 0.154937
314.000000, 0.156855
313.000000, 0.159014
312.000000, 0.161238
311.000000, 0.163588
310.000000, 0.165420
309.000000, 0.168994
308.000000, 0.169259
307.000000, 0.171760
306.000000, 0.175503
305.000000, 0.177468
304.000000, 0.179220
303.000000, 0.183099
302.000000, 0.184210
301.000000, 0.186954
300.000000, 0.187737
