4.410000000000000000e+02	6.438123401556592462e+00
4.420000000000000000e+02	6.811510381018917037e+00
4.430000000000000000e+02	7.204718391471486072e+00
4.440000000000000000e+02	7.618685728012655645e+00
4.450000000000000000e+02	8.054388419838913293e+00
4.460000000000000000e+02	8.512841376396083959e+00
4.470000000000000000e+02	8.995099548351682017e+00
4.480000000000000000e+02	9.502259102412960345e+00
4.490000000000000000e+02	1.003545860893479613e+01
4.500000000000000000e+02	1.059588024117750926e+01
4.510000000000000000e+02	1.118475098498947951e+01
4.520000000000000000e+02	1.180334385760126636e+01
4.530000000000000000e+02	1.245297913412760593e+01
4.540000000000000000e+02	1.313502558028171663e+01
4.550000000000000000e+02	1.385090168971160196e+01
4.560000000000000000e+02	1.460207692427237269e+01
4.570000000000000000e+02	1.539007295545022558e+01
4.580000000000000000e+02	1.621646490505451865e+01
4.590000000000000000e+02	1.708288258319293007e+01
4.600000000000000000e+02	1.799101172144276362e+01
4.610000000000000000e+02	1.894259519902741573e+01
4.620000000000000000e+02	1.993943425970292438e+01
4.630000000000000000e+02	2.098338971695400801e+01
4.640000000000000000e+02	2.207638314499274301e+01
4.650000000000000000e+02	2.322039805294769010e+01
4.660000000000000000e+02	2.441748103952382465e+01
4.670000000000000000e+02	2.566974292530798252e+01
4.680000000000000000e+02	2.697935985978834594e+01
4.690000000000000000e+02	2.834857440005139040e+01
4.700000000000000000e+02	2.977969655801508253e+01
4.710000000000000000e+02	3.127510481295392353e+01
4.720000000000000000e+02	3.283724708597034692e+01
4.730000000000000000e+02	3.446864167296595127e+01
4.740000000000000000e+02	3.617187813256967388e+01
4.750000000000000000e+02	3.794961812538369372e+01
4.760000000000000000e+02	3.980459620081647643e+01
4.770000000000000000e+02	4.173962052768168007e+01
4.780000000000000000e+02	4.375757356465823023e+01
4.790000000000000000e+02	4.586141266662277616e+01
4.800000000000000000e+02	4.805417062279018836e+01
4.810000000000000000e+02	5.033895612252494089e+01
4.820000000000000000e+02	5.271895414462330365e+01
4.830000000000000000e+02	5.519742626585522771e+01
4.840000000000000000e+02	5.777771088491423512e+01
4.850000000000000000e+02	6.046322336114727136e+01
4.860000000000000000e+02	6.325745609092201249e+01
4.870000000000000000e+02	6.616397869965292955e+01
4.880000000000000000e+02	6.918643946538666967e+01
4.890000000000000000e+02	7.232857427468164246e+01
4.900000000000000000e+02	7.559425558284695512e+01
4.910000000000000000e+02	7.898773420098746101e+01
4.920000000000000000e+02	8.251472950519561778e+01
4.930000000000000000e+02	8.618692483006743998e+01
4.940000000000000000e+02	9.003890073509066383e+01
4.950000000000000000e+02	9.418627837126439317e+01
4.960000000000000000e+02	9.900717178703280297e+01
4.970000000000000000e+02	1.056548214950219773e+02
4.980000000000000000e+02	1.173615689746017523e+02
4.990000000000000000e+02	1.424019638667099059e+02
5.000000000000000000e+02	2.000359791216694134e+02
5.010000000000000000e+02	3.308197901685116449e+02
5.020000000000000000e+02	6.114789989008723978e+02
5.030000000000000000e+02	1.171057954714051448e+03
5.040000000000000000e+02	2.199142519595752674e+03
5.050000000000000000e+02	3.930946136835536436e+03
5.060000000000000000e+02	6.593581839878414939e+03
5.070000000000000000e+02	1.030959944891487066e+04
5.080000000000000000e+02	1.497946154847607249e+04
5.090000000000000000e+02	2.019403491864229727e+04
5.100000000000000000e+02	2.524017562107956110e+04
5.110000000000000000e+02	2.923738103410203621e+04
5.120000000000000000e+02	3.138229163048542978e+04
5.130000000000000000e+02	3.121120990341742436e+04
5.140000000000000000e+02	2.876366290709394525e+04
5.150000000000000000e+02	2.456816847645210873e+04
5.160000000000000000e+02	1.945720790762824254e+04
5.170000000000000000e+02	1.429992678412287205e+04
5.180000000000000000e+02	9.769433990292845920e+03
5.190000000000000000e+02	6.226029479311708201e+03
5.200000000000000000e+02	3.729042546503917038e+03
5.210000000000000000e+02	2.132896149380229872e+03
5.220000000000000000e+02	1.204090778560376293e+03
5.230000000000000000e+02	7.119096763101663328e+02
5.240000000000000000e+02	4.756391346519543504e+02
5.250000000000000000e+02	3.749293222093382383e+02
5.260000000000000000e+02	3.395376177802489792e+02
5.270000000000000000e+02	3.329492377574322290e+02
5.280000000000000000e+02	3.380926615942207150e+02
5.290000000000000000e+02	3.477445231416567708e+02
5.300000000000000000e+02	3.591274642505272823e+02
5.310000000000000000e+02	3.712692553345115698e+02
5.320000000000000000e+02	3.838607722948401602e+02
5.330000000000000000e+02	3.968142031105253977e+02
5.340000000000000000e+02	4.101090200316265850e+02
5.350000000000000000e+02	4.237433286315973646e+02
5.360000000000000000e+02	4.377198897431019873e+02
5.370000000000000000e+02	4.520424522344277420e+02
5.380000000000000000e+02	4.667148686525877679e+02
5.390000000000000000e+02	4.817408947056214856e+02
5.400000000000000000e+02	4.971241420849480619e+02
5.410000000000000000e+02	5.128680626896216381e+02
5.420000000000000000e+02	5.289759386995457362e+02
5.430000000000000000e+02	5.454508736116209775e+02
5.440000000000000000e+02	5.622957833917381549e+02
5.450000000000000000e+02	5.795133876167599283e+02
5.460000000000000000e+02	5.971062005988065948e+02
5.470000000000000000e+02	6.150765225021871174e+02
5.480000000000000000e+02	6.334264304661689948e+02
5.490000000000000000e+02	6.521577697474789375e+02
5.500000000000000000e+02	6.712721448968492268e+02
5.510000000000000000e+02	6.907709109842957105e+02
5.520000000000000000e+02	7.106551648881628580e+02
5.530000000000000000e+02	7.309257366632959929e+02
5.540000000000000000e+02	7.515831810040106120e+02
5.550000000000000000e+02	7.726277688178048493e+02
5.560000000000000000e+02	7.940594789260214839e+02
5.570000000000000000e+02	8.158779899078974722e+02
5.580000000000000000e+02	8.380826721046382772e+02
5.590000000000000000e+02	8.606725798003335512e+02
5.600000000000000000e+02	8.836464435966719293e+02
5.610000000000000000e+02	9.070026629985294448e+02
5.620000000000000000e+02	9.307392992275857750e+02
5.630000000000000000e+02	9.548540682811707256e+02
5.640000000000000000e+02	9.793443342535598504e+02
5.650000000000000000e+02	1.004207102936917408e+03
5.660000000000000000e+02	1.029439015719022336e+03
5.670000000000000000e+02	1.055036343794827644e+03
5.680000000000000000e+02	1.080994982708770294e+03
5.690000000000000000e+02	1.107310447244568877e+03
5.700000000000000000e+02	1.133977866679059389e+03
5.710000000000000000e+02	1.160991980416347587e+03
5.720000000000000000e+02	1.188347134018290035e+03
5.730000000000000000e+02	1.216037275646977378e+03
5.740000000000000000e+02	1.244055952934527113e+03
5.750000000000000000e+02	1.272396310295092235e+03
5.760000000000000000e+02	1.301051086693536035e+03
5.770000000000000000e+02	1.330012613884742450e+03
5.780000000000000000e+02	1.359272815136999043e+03
5.790000000000000000e+02	1.388823204452322216e+03
5.800000000000000000e+02	1.418654886295993947e+03
5.810000000000000000e+02	1.448758555846922036e+03
5.820000000000000000e+02	1.479124499779762345e+03
5.830000000000000000e+02	1.509742597589017123e+03
5.840000000000000000e+02	1.540602323464564961e+03
5.850000000000000000e+02	1.571692748727284197e+03
5.860000000000000000e+02	1.603002544832607782e+03
5.870000000000000000e+02	1.634519986948982705e+03
5.880000000000000000e+02	1.666232958117318276e+03
5.890000000000000000e+02	1.698128953996578048e+03
5.900000000000000000e+02	1.730195088199729071e+03
5.910000000000000000e+02	1.762418098223267862e+03
5.920000000000000000e+02	1.794784351972552486e+03
5.930000000000000000e+02	1.827279854884128326e+03
5.940000000000000000e+02	1.859890257645192150e+03
5.950000000000000000e+02	1.892600864509264738e+03
5.960000000000000000e+02	1.925396642206060051e+03
5.970000000000000000e+02	1.958262229442419311e+03
5.980000000000000000e+02	1.991181946990083588e+03
5.990000000000000000e+02	2.024139808354928391e+03
6.000000000000000000e+02	2.057119531021165130e+03
6.010000000000000000e+02	2.090104548262852859e+03
6.020000000000000000e+02	2.123078021513938893e+03
6.030000000000000000e+02	2.156022853286882309e+03
6.040000000000000000e+02	2.188921700628768122e+03
6.050000000000000000e+02	2.221756989102701482e+03
6.060000000000000000e+02	2.254510927281105978e+03
6.070000000000000000e+02	2.287165521736445044e+03
6.080000000000000000e+02	2.319702592513773197e+03
6.090000000000000000e+02	2.352103789068420610e+03
6.100000000000000000e+02	2.384350606651034923e+03
6.110000000000000000e+02	2.416424403121157411e+03
6.120000000000000000e+02	2.448306416169466956e+03
6.130000000000000000e+02	2.479977780927821186e+03
6.140000000000000000e+02	2.511419547945236900e+03
6.150000000000000000e+02	2.542612701507030124e+03
6.160000000000000000e+02	2.573538178273383892e+03
6.170000000000000000e+02	2.604176886212775116e+03
6.180000000000000000e+02	2.634509723804825626e+03
6.190000000000000000e+02	2.664517599486362087e+03
6.200000000000000000e+02	2.694181451313719663e+03
6.210000000000000000e+02	2.723482266813603019e+03
6.220000000000000000e+02	2.752401102994186203e+03
6.230000000000000000e+02	2.780919106487503086e+03
6.240000000000000000e+02	2.809017533793643906e+03
6.250000000000000000e+02	2.836677771596765979e+03
6.260000000000000000e+02	2.863881357122481404e+03
6.270000000000000000e+02	2.890609998505809472e+03
6.280000000000000000e+02	2.916845595138544468e+03
6.290000000000000000e+02	2.942570257964627672e+03
6.300000000000000000e+02	2.967766329691909050e+03
6.310000000000000000e+02	2.992416404888546367e+03
6.320000000000000000e+02	3.016503349932198489e+03
6.330000000000000000e+02	3.040010322780177376e+03
6.340000000000000000e+02	3.062920792528749189e+03
6.350000000000000000e+02	3.085218558729921824e+03
6.360000000000000000e+02	3.106887770434204867e+03
6.370000000000000000e+02	3.127912944928113575e+03
6.380000000000000000e+02	3.148278986135466766e+03
6.390000000000000000e+02	3.167971202651940985e+03
6.400000000000000000e+02	3.186975325382753454e+03
6.410000000000000000e+02	3.205277524753897524e+03
6.420000000000000000e+02	3.222864427467885434e+03
6.430000000000000000e+02	3.239723132775618069e+03
6.440000000000000000e+02	3.255841228236686220e+03
6.450000000000000000e+02	3.271206804941170503e+03
6.460000000000000000e+02	3.285808472166821502e+03
6.470000000000000000e+02	3.299635371446380304e+03
6.480000000000000000e+02	3.312677190020726812e+03
6.490000000000000000e+02	3.324924173654530023e+03
6.500000000000000000e+02	3.336367138792112200e+03
6.510000000000000000e+02	3.346997484032321154e+03
6.520000000000000000e+02	3.356807200902345812e+03
6.530000000000000000e+02	3.365788883911581252e+03
6.540000000000000000e+02	3.373935739867881239e+03
6.550000000000000000e+02	3.381241596439786463e+03
6.560000000000000000e+02	3.387700909949624929e+03
6.570000000000000000e+02	3.393308772383712039e+03
6.580000000000000000e+02	3.398060917607236661e+03
6.590000000000000000e+02	3.401953726772822392e+03
6.600000000000000000e+02	3.404984232913156120e+03
6.610000000000000000e+02	3.407150124709539796e+03
6.620000000000000000e+02	3.408449749429644271e+03
6.630000000000000000e+02	3.408882115029259239e+03
6.640000000000000000e+02	3.408446891414282618e+03
6.650000000000000000e+02	3.407144410860705648e+03
6.660000000000000000e+02	3.404975667591852471e+03
6.670000000000000000e+02	3.401942316513617243e+03
6.680000000000000000e+02	3.398046671109958424e+03
6.690000000000000000e+02	3.393291700502390540e+03
6.700000000000000000e+02	3.387681025678714377e+03
6.710000000000000000e+02	3.381218914897679497e+03
6.720000000000000000e+02	3.373910278277754514e+03
6.730000000000000000e+02	3.365760661579598036e+03
6.740000000000000000e+02	3.356776239193262427e+03
6.750000000000000000e+02	3.346963806342533644e+03
6.760000000000000000e+02	3.336330770520193255e+03
6.770000000000000000e+02	3.324885142169310257e+03
6.780000000000000000e+02	3.312635524626973165e+03
6.790000000000000000e+02	3.299591103348132037e+03
6.800000000000000000e+02	3.285761634428451543e+03
6.810000000000000000e+02	3.271157432446237181e+03
6.820000000000000000e+02	3.255789357644645861e+03
6.830000000000000000e+02	3.239668802476477595e+03
6.840000000000000000e+02	3.222807677534869526e+03
6.850000000000000000e+02	3.205218396894215857e+03
6.860000000000000000e+02	3.186913862886548941e+03
6.870000000000000000e+02	3.167907450339507250e+03
6.880000000000000000e+02	3.148212990302827620e+03
6.890000000000000000e+02	3.127844753291053621e+03
6.900000000000000000e+02	3.106817432070849463e+03
6.910000000000000000e+02	3.085146124021956894e+03
6.920000000000000000e+02	3.062846313101387295e+03
6.930000000000000000e+02	3.039933851440960098e+03
6.940000000000000000e+02	3.016424940608750603e+03
6.950000000000000000e+02	2.992336112565366875e+03
6.960000000000000000e+02	2.967684210346318650e+03
6.970000000000000000e+02	2.942486368501964535e+03
6.980000000000000000e+02	2.916759993326720178e+03
6.990000000000000000e+02	2.890522742909327462e+03
7.000000000000000000e+02	2.863792507036023380e+03
7.010000000000000000e+02	2.836587386978450468e+03
7.020000000000000000e+02	2.808925675198061072e+03
7.030000000000000000e+02	2.780825834998631308e+03
7.040000000000000000e+02	2.752306480158291834e+03
7.050000000000000000e+02	2.723386354572226992e+03
7.060000000000000000e+02	2.694084311936848735e+03
7.070000000000000000e+02	2.664419295505889750e+03
7.080000000000000000e+02	2.634410317948394550e+03
7.090000000000000000e+02	2.604076441338102541e+03
7.100000000000000000e+02	2.573436757303159084e+03
7.110000000000000000e+02	2.542510367364483045e+03
7.120000000000000000e+02	2.511316363490460390e+03
7.130000000000000000e+02	2.479873808894941249e+03
7.140000000000000000e+02	2.448201719104740732e+03
7.150000000000000000e+02	2.416319043322085236e+03
7.160000000000000000e+02	2.384244646106564687e+03
7.170000000000000000e+02	2.351997289400319460e+03
7.180000000000000000e+02	2.319595614919239324e+03
7.190000000000000000e+02	2.287058126932038704e+03
7.200000000000000000e+02	2.254403175448054299e+03
7.210000000000000000e+02	2.221648939833648910e+03
7.220000000000000000e+02	2.188813412876028906e+03
7.230000000000000000e+02	2.155914385312258219e+03
7.240000000000000000e+02	2.122969430840144469e+03
7.250000000000000000e+02	2.089995891626606863e+03
7.260000000000000000e+02	2.057010864327994113e+03
7.270000000000000000e+02	2.024031186635715358e+03
7.280000000000000000e+02	1.991073424359410410e+03
7.290000000000000000e+02	1.958153859058733588e+03
7.300000000000000000e+02	1.925288476233695746e+03
7.310000000000000000e+02	1.892492954082344113e+03
7.320000000000000000e+02	1.859782652833436032e+03
7.330000000000000000e+02	1.827172604660590878e+03
7.340000000000000000e+02	1.794677504183293422e+03
7.350000000000000000e+02	1.762311699558981445e+03
7.360000000000000000e+02	1.730089184169334658e+03
7.370000000000000000e+02	1.698023588902774009e+03
7.380000000000000000e+02	1.666128175034104970e+03
7.390000000000000000e+02	1.634415827701152466e+03
7.400000000000000000e+02	1.602899049977190771e+03
7.410000000000000000e+02	1.571589957536950124e+03
7.420000000000000000e+02	1.540500273912958392e+03
7.430000000000000000e+02	1.509641326338017734e+03
7.440000000000000000e+02	1.479024042168651022e+03
7.450000000000000000e+02	1.448658945883427350e+03
7.460000000000000000e+02	1.418556156649199238e+03
7.470000000000000000e+02	1.388725386447402116e+03
7.480000000000000000e+02	1.359175938751759531e+03
7.490000000000000000e+02	1.329916707747928740e+03
7.500000000000000000e+02	1.300956178084873045e+03
7.510000000000000000e+02	1.272302425147025815e+03
7.520000000000000000e+02	1.243963115835619874e+03
7.530000000000000000e+02	1.215945509846921368e+03
7.540000000000000000e+02	1.188256461434493531e+03
7.550000000000000000e+02	1.160902421642046875e+03
7.560000000000000000e+02	1.133889440992914842e+03
7.570000000000000000e+02	1.107223172621690082e+03
7.580000000000000000e+02	1.080908875833125876e+03
7.590000000000000000e+02	1.054951420072987048e+03
7.600000000000000000e+02	1.029355289295174771e+03
7.610000000000000000e+02	1.004124586709119512e+03
7.620000000000000000e+02	9.792630398911525162e+02
7.630000000000000000e+02	9.547740062433171033e+02
7.640000000000000000e+02	9.306604787828673579e+02
7.650000000000000000e+02	9.069250922455493082e+02
7.660000000000000000e+02	8.835701294856081631e+02
7.670000000000000000e+02	8.605975281553843388e+02
7.680000000000000000e+02	8.380088876473039363e+02
7.690000000000000000e+02	8.158054762810409102e+02
7.700000000000000000e+02	7.939882387186531787e+02
7.710000000000000000e+02	7.725578035905328989e+02
7.720000000000000000e+02	7.515144913151015089e+02
7.730000000000000000e+02	7.308583220952905322e+02
7.740000000000000000e+02	7.105890240749909026e+02
7.750000000000000000e+02	6.907060416388363819e+02
7.760000000000000000e+02	6.712085438388824059e+02
7.770000000000000000e+02	6.520954329319752105e+02
7.780000000000000000e+02	6.333653530118659774e+02
7.790000000000000000e+02	6.150166987204001998e+02
7.800000000000000000e+02	5.970476240224256799e+02
7.810000000000000000e+02	5.794560510293814559e+02
7.820000000000000000e+02	5.622396788568850070e+02
7.830000000000000000e+02	5.453959925019998991e+02
7.840000000000000000e+02	5.289222717262501874e+02
7.850000000000000000e+02	5.128155999308511355e+02
7.860000000000000000e+02	4.970728730110472497e+02
7.870000000000000000e+02	4.816908081768692114e+02
7.880000000000000000e+02	4.666659527280767179e+02
7.890000000000000000e+02	4.519946927715013771e+02
7.900000000000000000e+02	4.376732618694689450e+02
7.910000000000000000e+02	4.236977496084554673e+02
7.920000000000000000e+02	4.100641100776062444e+02
7.930000000000000000e+02	3.967681702472419829e+02
7.940000000000000000e+02	3.838056382379472780e+02
7.950000000000000000e+02	3.711721114713553220e+02
7.960000000000000000e+02	3.588630846942106700e+02
7.970000000000000000e+02	3.468739578678072917e+02
7.980000000000000000e+02	3.352000439153874822e+02
7.990000000000000000e+02	3.238365763205733288e+02
8.000000000000000000e+02	3.127787165704116319e+02
8.010000000000000000e+02	3.020215614370788444e+02
8.020000000000000000e+02	2.915601500927971301e+02
8.030000000000000000e+02	2.813894710529718850e+02
8.040000000000000000e+02	2.715044689430472999e+02
8.050000000000000000e+02	2.619000510850289061e+02
8.060000000000000000e+02	2.525710939000872770e+02
8.070000000000000000e+02	2.435124491240994189e+02
8.080000000000000000e+02	2.347189498334223288e+02
8.090000000000000000e+02	2.261854162786250697e+02
8.100000000000000000e+02	2.179066615243185367e+02
8.110000000000000000e+02	2.098774968936310756e+02
8.120000000000000000e+02	2.020927372162697679e+02
8.130000000000000000e+02	1.945472058794925658e+02
8.140000000000000000e+02	1.872357396816832420e+02
8.150000000000000000e+02	1.801531934885771022e+02
8.160000000000000000e+02	1.732944446925319255e+02
8.170000000000000000e+02	1.666543974755634281e+02
8.180000000000000000e+02	1.602279868771852023e+02
8.190000000000000000e+02	1.540101826683895183e+02
8.200000000000000000e+02	1.479959930333978946e+02
8.210000000000000000e+02	1.421804680610794378e+02
8.220000000000000000e+02	1.365587030481969748e+02
8.230000000000000000e+02	1.311258416168838892e+02
8.240000000000000000e+02	1.258770786489839679e+02
8.250000000000000000e+02	1.208076630401066041e+02
8.260000000000000000e+02	1.159129002764446170e+02
8.270000000000000000e+02	1.111881548375974518e+02
8.280000000000000000e+02	1.066288524288083295e+02
8.290000000000000000e+02	1.022304820461909429e+02
8.300000000000000000e+02	9.798859787866162208e+01
8.310000000000000000e+02	9.389882105042916294e+01
8.320000000000000000e+02	8.995684120801379891e+01
8.330000000000000000e+02	8.615841795587229512e+01
8.340000000000000000e+02	8.249938214480231125e+01
8.350000000000000000e+02	7.897563701737911401e+01
8.360000000000000000e+02	7.558315921475056598e+01
8.370000000000000000e+02	7.231799964917192369e+01
8.380000000000000000e+02	6.917628424671218568e+01
8.390000000000000000e+02	6.615421456459750971e+01
8.400000000000000000e+02	6.324806828768573297e+01
8.410000000000000000e+02	6.045419960858013297e+01
8.420000000000000000e+02	5.776903949589812726e+01
8.430000000000000000e+02	5.518909585520673033e+01
8.440000000000000000e+02	5.271095358712553747e+01
8.450000000000000000e+02	5.033127454707698689e+01
8.460000000000000000e+02	4.804679741113618263e+01
8.470000000000000000e+02	4.585433745239662784e+01
8.480000000000000000e+02	4.375078623222344731e+01
8.490000000000000000e+02	4.173311121071932916e+01
8.500000000000000000e+02	3.979835528066860917e+01
8.510000000000000000e+02	3.794363622916579715e+01
8.520000000000000000e+02	3.616614613106469989e+01
8.530000000000000000e+02	3.446315067831412904e+01
8.540000000000000000e+02	3.283198844916723402e+01
8.550000000000000000e+02	3.127007012116949625e+01
8.560000000000000000e+02	2.977487763174653068e+01
8.570000000000000000e+02	2.834396329012145088e+01
8.580000000000000000e+02	2.697494884420113692e+01
8.590000000000000000e+02	2.566552450597401958e+01
8.600000000000000000e+02	2.441344793886520748e+01
8.610000000000000000e+02	2.321654321039426350e+01
8.620000000000000000e+02	2.207269971337995784e+01
8.630000000000000000e+02	2.097987105883246528e+01
8.640000000000000000e+02	1.993607394356962814e+01
8.650000000000000000e+02	1.893938699548800031e+01
8.660000000000000000e+02	1.798794959931405657e+01
8.670000000000000000e+02	1.707996070555438806e+01
8.680000000000000000e+02	1.621367762525712308e+01
8.690000000000000000e+02	1.538741481309095960e+01
8.700000000000000000e+02	1.459954264114189648e+01
8.710000000000000000e+02	1.384848616572256930e+01
8.720000000000000000e+02	1.313272388938472091e+01
8.730000000000000000e+02	1.245078652022159105e+01
8.740000000000000000e+02	1.180125573044464460e+01
8.750000000000000000e+02	1.118276291611810258e+01
8.760000000000000000e+02	1.059398795983505792e+01
8.770000000000000000e+02	1.003365799802114289e+01
8.780000000000000000e+02	9.500546194455514737e+00
8.790000000000000000e+02	8.993470521504505655e+00
8.800000000000000000e+02	8.511292550471226903e+00
8.810000000000000000e+02	8.052916252374135553e+00
8.820000000000000000e+02	7.617286810379517270e+00
8.830000000000000000e+02	7.203389445027330140e+00
8.840000000000000000e+02	6.810248253306127708e+00
8.850000000000000000e+02	6.436925062552202093e+00
8.860000000000000000e+02	6.082518300069272854e+00
8.870000000000000000e+02	5.746161879289090280e+00
8.880000000000000000e+02	5.427024103219858731e+00
8.890000000000000000e+02	5.124306585858282581e+00
8.900000000000000000e+02	4.837243192172891781e+00
8.910000000000000000e+02	4.565098997200185416e+00
8.920000000000000000e+02	4.307169264732150005e+00
8.930000000000000000e+02	4.062778446012892175e+00
8.940000000000000000e+02	3.831279198804169894e+00
8.950000000000000000e+02	3.612051427123975866e+00
8.960000000000000000e+02	3.404501341909397905e+00
8.970000000000000000e+02	3.208060542804518800e+00
8.980000000000000000e+02	3.022185121225994919e+00
8.990000000000000000e+02	2.846354784813613481e+00
9.000000000000000000e+02	2.680072003329718289e+00
9.010000000000000000e+02	2.522861176030828378e+00
9.020000000000000000e+02	2.374267820496162695e+00
9.030000000000000000e+02	2.233857782861635055e+00
9.040000000000000000e+02	2.101216469373896167e+00
9.050000000000000000e+02	1.975948099147158965e+00
9.060000000000000000e+02	1.857674977975830366e+00
9.070000000000000000e+02	1.746036793028296952e+00
9.080000000000000000e+02	1.640689928221545912e+00
9.090000000000000000e+02	1.541306800052517412e+00
9.100000000000000000e+02	1.447575213640200698e+00
9.110000000000000000e+02	1.359197738712419445e+00
9.120000000000000000e+02	1.275891105252834112e+00
9.130000000000000000e+02	1.197385618507095018e+00
9.140000000000000000e+02	1.123424593031908003e+00
9.150000000000000000e+02	1.053763805457331948e+00
9.160000000000000000e+02	9.881709656205106551e-01
9.170000000000000000e+02	9.264252057184395595e-01
9.180000000000000000e+02	8.683165871181004469e-01
9.190000000000000000e+02	8.136456244542309424e-01
9.200000000000000000e+02	7.622228266383352935e-01
9.210000000000000000e+02	7.138682543968151162e-01
9.220000000000000000e+02	6.684110939517283745e-01
9.230000000000000000e+02	6.256892464541213839e-01
9.240000000000000000e+02	5.855489327774593411e-01
9.250000000000000000e+02	5.478443132771770863e-01
9.260000000000000000e+02	5.124371221216148520e-01
9.270000000000000000e+02	4.791963157998761491e-01
9.280000000000000000e+02	4.479977354129573985e-01
9.290000000000000000e+02	4.187237823562133809e-01
9.300000000000000000e+02	3.912631070035116343e-01
9.310000000000000000e+02	3.655103100063178401e-01
9.320000000000000000e+02	3.413656558244876904e-01
9.330000000000000000e+02	3.187347981095481342e-01
9.340000000000000000e+02	2.975285165657309272e-01
9.350000000000000000e+02	2.776624649190113647e-01
9.360000000000000000e+02	2.590569296296920121e-01
9.370000000000000000e+02	2.416365989898282551e-01
9.380000000000000000e+02	2.253303422528019351e-01
9.390000000000000000e+02	2.100709984486605342e-01
9.400000000000000000e+02	1.957951745454631076e-01
9.410000000000000000e+02	1.824430526236286987e-01
9.420000000000000000e+02	1.699582057373232591e-01
9.430000000000000000e+02	1.582874221440818407e-01
9.440000000000000000e+02	1.473805375911517723e-01
9.450000000000000000e+02	1.371902753544971820e-01
9.460000000000000000e+02	1.276720937338879647e-01
9.470000000000000000e+02	1.187840407150909383e-01
9.480000000000000000e+02	1.104866155178075710e-01
9.490000000000000000e+02	1.027426367556349140e-01
9.500000000000000000e+02	9.551711694200951119e-02
9.510000000000000000e+02	8.877714308371413565e-02
9.520000000000000000e+02	8.249176311116732108e-02
9.530000000000000000e+02	7.663187790228383200e-02
9.540000000000000000e+02	7.117013866421735557e-02
9.550000000000000000e+02	6.608084944475411948e-02
9.560000000000000000e+02	6.133987455250279608e-02
9.570000000000000000e+02	5.692455067230139248e-02
9.580000000000000000e+02	5.281360346945954132e-02
9.590000000000000000e+02	4.898706848351787324e-02
9.600000000000000000e+02	4.542621611917271873e-02
9.610000000000000000e+02	4.211348054884830883e-02
9.620000000000000000e+02	3.903239234810095687e-02
9.630000000000000000e+02	3.616751469161669230e-02
9.640000000000000000e+02	3.350438294398690176e-02
9.650000000000000000e+02	3.102944748574004014e-02
9.660000000000000000e+02	2.873001962124361111e-02
9.670000000000000000e+02	2.659422042108022452e-02
9.680000000000000000e+02	2.461093235734157850e-02
9.690000000000000000e+02	2.276975359596474999e-02
9.700000000000000000e+02	2.106095481576713419e-02
9.710000000000000000e+02	1.947543842920723342e-02
9.720000000000000000e+02	1.800470008511718262e-02
9.730000000000000000e+02	1.664079233871388133e-02
9.740000000000000000e+02	1.537629037910269100e-02
9.750000000000000000e+02	1.420425970923836802e-02
9.760000000000000000e+02	1.311822567790889293e-02
9.770000000000000000e+02	1.211214476775231662e-02
9.780000000000000000e+02	1.118037754761641578e-02
9.790000000000000000e+02	1.031766320171821801e-02
9.800000000000000000e+02	9.519095552064376839e-03
9.810000000000000000e+02	8.780100494453151050e-03
9.820000000000000000e+02	8.096414772096634585e-03
9.830000000000000000e+02	7.464066014483150893e-03
9.840000000000000000e+02	6.879353972543729087e-03
9.850000000000000000e+02	6.338832884499165723e-03
9.860000000000000000e+02	5.839294909946874008e-03
9.870000000000000000e+02	5.377754572802559072e-03
9.880000000000000000e+02	4.951434156644939424e-03
9.890000000000000000e+02	4.557749998824568022e-03
9.900000000000000000e+02	4.194299632393373202e-03
9.910000000000000000e+02	3.858849727494740797e-03
9.920000000000000000e+02	3.549324786325379778e-03
9.930000000000000000e+02	3.263796548146331508e-03
9.940000000000000000e+02	3.000474063081858683e-03
9.950000000000000000e+02	2.757694395606498285e-03
9.960000000000000000e+02	2.533913920685161407e-03
9.970000000000000000e+02	2.327700177501999465e-03
9.980000000000000000e+02	2.137724247593651879e-03
9.990000000000000000e+02	1.962753625995908129e-03
1.000000000000000000e+03	1.801645555720996286e-03
