  440.0000	               90
  441.0000	              101
  442.0000	               72
  443.0000	               86
  444.0000	               93
  445.0000	              133
  446.0000	              110
  447.0000	              104
  448.0000	               84
  449.0000	               89
  450.0000	               62
  451.0000	               86
  452.0000	               74
  453.0000	              129
  454.0000	              102
  455.0000	               78
  456.0000	               95
  457.0000	              136
  458.0000	              111
  459.0000	              106
  460.0000	              109
  461.0000	              115
  462.0000	              128
  463.0000	               75
  464.0000	               87
  465.0000	               73
  466.0000	               97
  467.0000	               70
  468.0000	               96
  469.0000	               71
  470.0000	               80
  471.0000	               61
  472.0000	               88
  473.0000	               95
  474.0000	              111
  475.0000	               87
  476.0000	              116
  477.0000	              108
  478.0000	              102
  479.0000	              141
  480.0000	              102
  481.0000	               89
  482.0000	              131
  483.0000	              123
  484.0000	              134
  485.0000	              135
  486.0000	              185
  487.0000	              188
  488.0000	              254
  489.0000	              293
  490.0000	              294
  491.0000	              377
  492.0000	              304
  493.0000	              332
  494.0000	              373
  495.0000	              443
  496.0000	              375
  497.0000	              459
  498.0000	              541
  499.0000	              618
  500.0000	              882
  501.0000	             1102
  502.0000	             1316
  503.0000	             1575
  504.0000	             2165
  505.0000	             2739
  506.0000	             3284
  507.0000	             4469
  508.0000	             5845
  509.0000	             7330
  510.0000	             9599
  511.0000	            12482
  512.0000	            14056
  513.0000	            14953
  514.0000	            13540
  515.0000	            10727
  516.0000	             7733
  517.0000	             5625
  518.0000	             4066
  519.0000	             2930
  520.0000	             2228
  521.0000	             1804
  522.0000	             1474
  523.0000	             1176
  524.0000	              951
  525.0000	              852
  526.0000	              640
  527.0000	              631
  528.0000	              502
  529.0000	              578
  530.0000	              433
  531.0000	              401
  532.0000	              370
  533.0000	              485
  534.0000	              405
  535.0000	              436
  536.0000	              474
  537.0000	              420
  538.0000	              473
  539.0000	              489
  540.0000	              531
  541.0000	              506
  542.0000	              496
  543.0000	              533
  544.0000	              509
  545.0000	              505
  546.0000	              547
  547.0000	              541
  548.0000	              553
  549.0000	              556
  550.0000	              494
  551.0000	              621
  552.0000	              577
  553.0000	              490
  554.0000	              543
  555.0000	              499
  556.0000	              584
  557.0000	              494
  558.0000	              482
  559.0000	              525
  560.0000	              503
  561.0000	              517
  562.0000	              557
  563.0000	              504
  564.0000	              612
  565.0000	              633
  566.0000	              633
  567.0000	              730
  568.0000	              633
  569.0000	              699
  570.0000	              727
  571.0000	              729
  572.0000	              704
  573.0000	              814
  574.0000	              765
  575.0000	              719
  576.0000	              816
  577.0000	              896
  578.0000	              924
  579.0000	              872
  580.0000	              792
  581.0000	              918
  582.0000	              881
  583.0000	              994
  584.0000	              976
  585.0000	              883
  586.0000	              931
  587.0000	             1032
  588.0000	              990
  589.0000	              997
  590.0000	             1103
  591.0000	             1044
  592.0000	             1234
  593.0000	             1072
  594.0000	             1183
  595.0000	             1357
  596.0000	             1153
  597.0000	             1198
  598.0000	             1168
  599.0000	             1125
  600.0000	             1315
  601.0000	             1310
  602.0000	             1311
  603.0000	             1227
  604.0000	             1300
  605.0000	             1271
  606.0000	             1355
  607.0000	             1327
  608.0000	             1362
  609.0000	             1524
  610.0000	             1514
  611.0000	             1417
  612.0000	             1408
  613.0000	             1536
  614.0000	             1445
  615.0000	             1477
  616.0000	             1622
  617.0000	             1502
  618.0000	             1647
  619.0000	             1507
  620.0000	             1642
  621.0000	             1700
  622.0000	             1535
  623.0000	             1750
  624.0000	             1614
  625.0000	             1488
  626.0000	             1598
  627.0000	             1620
  628.0000	             1470
  629.0000	             1588
  630.0000	             1590
  631.0000	             1647
  632.0000	             1593
  633.0000	             1663
  634.0000	             1610
  635.0000	             1826
  636.0000	             1626
  637.0000	             1670
  638.0000	             1630
  639.0000	             1623
  640.0000	             1591
  641.0000	             1534
  642.0000	             1495
  643.0000	             1624
  644.0000	             1447
  645.0000	             1332
  646.0000	             1445
  647.0000	             1466
  648.0000	             1553
  649.0000	             1453
  650.0000	             1370
  651.0000	             1473
  652.0000	             1421
  653.0000	             1404
  654.0000	             1443
  655.0000	             1268
  656.0000	             1411
  657.0000	             1239
  658.0000	             1359
  659.0000	             1324
  660.0000	             1282
  661.0000	             1305
  662.0000	             1327
  663.0000	             1289
  664.0000	             1317
  665.0000	             1257
  666.0000	             1249
  667.0000	             1183
  668.0000	             1275
  669.0000	             1164
  670.0000	             1031
  671.0000	             1065
  672.0000	             1021
  673.0000	             1174
  674.0000	             1079
  675.0000	              978
  676.0000	             1044
  677.0000	             1036
  678.0000	              977
  679.0000	             1003
  680.0000	              949
  681.0000	              814
  682.0000	              891
  683.0000	              902
  684.0000	              931
  685.0000	              980
  686.0000	              765
  687.0000	              809
  688.0000	              910
  689.0000	              868
  690.0000	              886
  691.0000	              874
  692.0000	              794
  693.0000	              854
  694.0000	              895
  695.0000	              812
  696.0000	              661
  697.0000	              682
  698.0000	              776
  699.0000	              750
  700.0000	              695
  701.0000	              690
  702.0000	              693
  703.0000	              727
  704.0000	              603
  705.0000	              600
  706.0000	              670
  707.0000	              685
  708.0000	              586
  709.0000	              552
  710.0000	              604
  711.0000	              541
  712.0000	              535
  713.0000	              615
  714.0000	              594
  715.0000	              484
  716.0000	              495
  717.0000	              510
  718.0000	              442
  719.0000	              444
  720.0000	              466
  721.0000	              382
  722.0000	              485
  723.0000	              395
  724.0000	              407
  725.0000	              424
  726.0000	              382
  727.0000	              349
  728.0000	              451
  729.0000	              422
  730.0000	              336
  731.0000	              330
  732.0000	              381
  733.0000	              314
  734.0000	              311
  735.0000	              356
  736.0000	              328
  737.0000	              328
  738.0000	              309
  739.0000	              287
  740.0000	              253
  741.0000	              298
  742.0000	              280
  743.0000	              224
  744.0000	              272
  745.0000	              197
  746.0000	              265
  747.0000	              224
  748.0000	              242
  749.0000	              235
  750.0000	              220
  751.0000	              181
  752.0000	              167
  753.0000	              230
  754.0000	              187
  755.0000	              182
  756.0000	              155
  757.0000	              158
  758.0000	              219
  759.0000	              182
  760.0000	              186
  761.0000	              199
  762.0000	              160
  763.0000	              153
  764.0000	              114
  765.0000	              169
  766.0000	              181
  767.0000	              127
  768.0000	              131
  769.0000	              133
  770.0000	              159
  771.0000	              152
  772.0000	              135
  773.0000	              130
  774.0000	              138
  775.0000	              176
  776.0000	              118
  777.0000	              157
  778.0000	              127
  779.0000	              100
  780.0000	              112
  781.0000	              156
  782.0000	              105
  783.0000	              108
  784.0000	              125
  785.0000	              127
  786.0000	              106
  787.0000	               85
  788.0000	              140
  789.0000	              135
  790.0000	              144
  791.0000	              111
  792.0000	              104
  793.0000	              103
  794.0000	               85
  795.0000	               93
  796.0000	              112
  797.0000	              112
  798.0000	               97
  799.0000	               86
  800.0000	               96
