4.410000000000000000e+02	3.261476576845436792e+00
4.420000000000000000e+02	3.464590503418537359e+00
4.430000000000000000e+02	3.679407969384957067e+00
4.440000000000000000e+02	3.906540813936153267e+00
4.450000000000000000e+02	4.146628942200171863e+00
4.460000000000000000e+02	4.400341379836310907e+00
4.470000000000000000e+02	4.668377354028486970e+00
4.480000000000000000e+02	4.951467400782318506e+00
4.490000000000000000e+02	5.250374498376523924e+00
4.500000000000000000e+02	5.565895226761499615e+00
4.510000000000000000e+02	5.898860952637483557e+00
4.520000000000000000e+02	6.250139039880729719e+00
4.530000000000000000e+02	6.620634084919375439e+00
4.540000000000000000e+02	7.011289176590625338e+00
4.550000000000000000e+02	7.423087179937347457e+00
4.560000000000000000e+02	7.857052043326034685e+00
4.570000000000000000e+02	8.314250128187975264e+00
4.580000000000000000e+02	8.795791560602905790e+00
4.590000000000000000e+02	9.302831603857887544e+00
4.600000000000000000e+02	9.836572051025104457e+00
4.610000000000000000e+02	1.039826263650931715e+01
4.620000000000000000e+02	1.098920246542054713e+01
4.630000000000000000e+02	1.161074145952824388e+01
4.640000000000000000e+02	1.226428181845166776e+01
4.650000000000000000e+02	1.295127949463643802e+01
4.660000000000000000e+02	1.367324568055915179e+01
4.670000000000000000e+02	1.443174830649208751e+01
4.680000000000000000e+02	1.522841354704612904e+01
4.690000000000000000e+02	1.606492733459499433e+01
4.700000000000000000e+02	1.694303687756488941e+01
4.710000000000000000e+02	1.786455218145394497e+01
4.720000000000000000e+02	1.883134757032258122e+01
4.730000000000000000e+02	1.984536320637176843e+01
4.740000000000000000e+02	2.090860660509921232e+01
4.750000000000000000e+02	2.202315414339624411e+01
4.760000000000000000e+02	2.319115255781813900e+01
4.770000000000000000e+02	2.441482043013066061e+01
4.780000000000000000e+02	2.569644965710410389e+01
4.790000000000000000e+02	2.703840690139421454e+01
4.800000000000000000e+02	2.844313502021670459e+01
4.810000000000000000e+02	2.991315446839087500e+01
4.820000000000000000e+02	3.145106467219493140e+01
4.830000000000000000e+02	3.305954537035092500e+01
4.840000000000000000e+02	3.474135791837431952e+01
4.850000000000000000e+02	3.649934655281849416e+01
4.860000000000000000e+02	3.833643961513441667e+01
4.870000000000000000e+02	4.025565075862434128e+01
4.880000000000000000e+02	4.226008031895238304e+01
4.890000000000000000e+02	4.435291797217006859e+01
4.900000000000000000e+02	4.653745296993674430e+01
4.910000000000000000e+02	4.881712396467620607e+01
4.920000000000000000e+02	5.119575664114182700e+01
4.930000000000000000e+02	5.367861204511152806e+01
4.940000000000000000e+02	5.627661423662502926e+01
4.950000000000000000e+02	5.902187282729848761e+01
4.960000000000000000e+02	6.201941079145639435e+01
4.970000000000000000e+02	6.560303778327336488e+01
4.980000000000000000e+02	7.075798333536683060e+01
4.990000000000000000e+02	8.014485828399858747e+01
5.000000000000000000e+02	1.002935635366037843e+02
5.010000000000000000e+02	1.456905365284501102e+02
5.020000000000000000e+02	2.451969362174439198e+02
5.030000000000000000e+02	4.499654064011385799e+02
5.040000000000000000e+02	8.394288130881590178e+02
5.050000000000000000e+02	1.518673624775195549e+03
5.060000000000000000e+02	2.598949544044328377e+03
5.070000000000000000e+02	4.156765196097542685e+03
5.080000000000000000e+02	6.178068797404753241e+03
5.090000000000000000e+02	8.509228090353401058e+03
5.100000000000000000e+02	1.084613089829999262e+04
5.110000000000000000e+02	1.278530320057166682e+04
5.120000000000000000e+02	1.393348150018603155e+04
5.130000000000000000e+02	1.403709799725132507e+04
5.140000000000000000e+02	1.307369700852127426e+04
5.150000000000000000e+02	1.126027921188878827e+04
5.160000000000000000e+02	8.974342479914368596e+03
5.170000000000000000e+02	6.626850920904781560e+03
5.180000000000000000e+02	4.545373373930329763e+03
5.190000000000000000e+02	2.911228430680489510e+03
5.200000000000000000e+02	1.760498618870123892e+03
5.210000000000000000e+02	1.028599265551509006e+03
5.220000000000000000e+02	6.068984900958380422e+02
5.230000000000000000e+02	3.871878287590277523e+02
5.240000000000000000e+02	2.848872972924301621e+02
5.250000000000000000e+02	2.440974026520473217e+02
5.260000000000000000e+02	2.325729000585757262e+02
5.270000000000000000e+02	2.338053631387104190e+02
5.280000000000000000e+02	2.402187644841936844e+02
5.290000000000000000e+02	2.486773427359470361e+02
5.300000000000000000e+02	2.580067903625072745e+02
5.310000000000000000e+02	2.678098279376385449e+02
5.320000000000000000e+02	2.779669264884572044e+02
5.330000000000000000e+02	2.884485319918759387e+02
5.340000000000000000e+02	2.992515853425315413e+02
5.350000000000000000e+02	3.103801288648872401e+02
5.360000000000000000e+02	3.218399286818427640e+02
5.370000000000000000e+02	3.336371140600203375e+02
5.380000000000000000e+02	3.457778589315203703e+02
5.390000000000000000e+02	3.582683088600567203e+02
5.400000000000000000e+02	3.711145605003037531e+02
5.410000000000000000e+02	3.843226511560474137e+02
5.420000000000000000e+02	3.978985499667613794e+02
5.430000000000000000e+02	4.118481491836164423e+02
5.440000000000000000e+02	4.261772552839360060e+02
5.450000000000000000e+02	4.408915798915977575e+02
5.460000000000000000e+02	4.559967305051588937e+02
5.470000000000000000e+02	4.714982010408243127e+02
5.480000000000000000e+02	4.874013621986167095e+02
5.490000000000000000e+02	5.037114516607809946e+02
5.500000000000000000e+02	5.204335641320909644e+02
5.510000000000000000e+02	5.375726412323315344e+02
5.520000000000000000e+02	5.551334612518567155e+02
5.530000000000000000e+02	5.731206287817235534e+02
5.540000000000000000e+02	5.915385642305301417e+02
5.550000000000000000e+02	6.103914932406703429e+02
5.560000000000000000e+02	6.296834360173305640e+02
5.570000000000000000e+02	6.494181965841353303e+02
5.580000000000000000e+02	6.695993519799308160e+02
5.590000000000000000e+02	6.902302414117621083e+02
5.600000000000000000e+02	7.113139553796505652e+02
5.610000000000000000e+02	7.328533247893238922e+02
5.620000000000000000e+02	7.548509100695627012e+02
5.630000000000000000e+02	7.773089903113410628e+02
5.640000000000000000e+02	8.002295524464119580e+02
5.650000000000000000e+02	8.236142804834532853e+02
5.660000000000000000e+02	8.474645448203273190e+02
5.670000000000000000e+02	8.717813916514110133e+02
5.680000000000000000e+02	8.965655324893486977e+02
5.690000000000000000e+02	9.218173338209152234e+02
5.700000000000000000e+02	9.475368069170231138e+02
5.710000000000000000e+02	9.737235978171758006e+02
5.720000000000000000e+02	1.000376977508941195e+03
5.730000000000000000e+02	1.027495832323233117e+03
5.740000000000000000e+02	1.055078654566376144e+03
5.750000000000000000e+02	1.083123533410066557e+03
5.760000000000000000e+02	1.111628146060462768e+03
5.770000000000000000e+02	1.140589749227682205e+03
5.780000000000000000e+02	1.170005170917017722e+03
5.790000000000000000e+02	1.199870802563161760e+03
5.800000000000000000e+02	1.230182591528652438e+03
5.810000000000000000e+02	1.260936033987646169e+03
5.820000000000000000e+02	1.292126168215962252e+03
5.830000000000000000e+02	1.323747568308136579e+03
5.840000000000000000e+02	1.355794338341960838e+03
5.850000000000000000e+02	1.388260107010684123e+03
5.860000000000000000e+02	1.421138022742693693e+03
5.870000000000000000e+02	1.454420749328089187e+03
5.880000000000000000e+02	1.488100462071112588e+03
5.890000000000000000e+02	1.522168844486879607e+03
5.900000000000000000e+02	1.556617085560318174e+03
5.910000000000000000e+02	1.591435877584599439e+03
5.920000000000000000e+02	1.626615414595699576e+03
5.930000000000000000e+02	1.662145391419022644e+03
5.940000000000000000e+02	1.698015003343255103e+03
5.950000000000000000e+02	1.734212946435832237e+03
5.960000000000000000e+02	1.770727418513523844e+03
5.970000000000000000e+02	1.807546120780781848e+03
5.980000000000000000e+02	1.844656260147511830e+03
5.990000000000000000e+02	1.882044552236973459e+03
6.000000000000000000e+02	1.919697225093469342e+03
6.010000000000000000e+02	1.957600023598414282e+03
6.020000000000000000e+02	1.995738214602261223e+03
6.030000000000000000e+02	2.034096592778620789e+03
6.040000000000000000e+02	2.072659487205707137e+03
6.050000000000000000e+02	2.111410768679048033e+03
6.060000000000000000e+02	2.150333857758119393e+03
6.070000000000000000e+02	2.189411733548301072e+03
6.080000000000000000e+02	2.228626943218231645e+03
6.090000000000000000e+02	2.267961612251319366e+03
6.100000000000000000e+02	2.307397455428792910e+03
6.110000000000000000e+02	2.346915788540315134e+03
6.120000000000000000e+02	2.386497540816787932e+03
6.130000000000000000e+02	2.426123268078575165e+03
6.140000000000000000e+02	2.465773166590947312e+03
6.150000000000000000e+02	2.505427087617140387e+03
6.160000000000000000e+02	2.545064552657985587e+03
6.170000000000000000e+02	2.584664769365650500e+03
6.180000000000000000e+02	2.624206648117598888e+03
6.190000000000000000e+02	2.663668819235463616e+03
6.200000000000000000e+02	2.703029650832111656e+03
6.210000000000000000e+02	2.742267267268796786e+03
6.220000000000000000e+02	2.781359568202897208e+03
6.230000000000000000e+02	2.820284248205390668e+03
6.240000000000000000e+02	2.859018816925877218e+03
6.250000000000000000e+02	2.897540619781640999e+03
6.260000000000000000e+02	2.935826859145970957e+03
6.270000000000000000e+02	2.973854616009715755e+03
6.280000000000000000e+02	3.011600872088823962e+03
6.290000000000000000e+02	3.049042532349452813e+03
6.300000000000000000e+02	3.086156447921124709e+03
6.310000000000000000e+02	3.122919439367285577e+03
6.320000000000000000e+02	3.159308320281630586e+03
6.330000000000000000e+02	3.195299921177561373e+03
6.340000000000000000e+02	3.230871113637215785e+03
6.350000000000000000e+02	3.265998834685653492e+03
6.360000000000000000e+02	3.300660111354980472e+03
6.370000000000000000e+02	3.334832085402436860e+03
6.380000000000000000e+02	3.368492038145823244e+03
6.390000000000000000e+02	3.401617415379013437e+03
6.400000000000000000e+02	3.434185852329780118e+03
6.410000000000000000e+02	3.466175198621690470e+03
6.420000000000000000e+02	3.497563543201450557e+03
6.430000000000000000e+02	3.528329239192736622e+03
6.440000000000000000e+02	3.558450928637367724e+03
6.450000000000000000e+02	3.587907567084455422e+03
6.460000000000000000e+02	3.616678447988144853e+03
6.470000000000000000e+02	3.644743226874532411e+03
6.480000000000000000e+02	3.672081945238441222e+03
6.490000000000000000e+02	3.698675054130902936e+03
6.500000000000000000e+02	3.724503437398447204e+03
6.510000000000000000e+02	3.749548434535624438e+03
6.520000000000000000e+02	3.773791863112608553e+03
6.530000000000000000e+02	3.797216040740214794e+03
6.540000000000000000e+02	3.819803806535253898e+03
6.550000000000000000e+02	3.841538542049787338e+03
6.560000000000000000e+02	3.862404191628605986e+03
6.570000000000000000e+02	3.882385282160039878e+03
6.580000000000000000e+02	3.901466942186126289e+03
6.590000000000000000e+02	3.919634920339112796e+03
6.600000000000000000e+02	3.936875603072313879e+03
6.610000000000000000e+02	3.953176031654461440e+03
6.620000000000000000e+02	3.968523918397851503e+03
6.630000000000000000e+02	3.982907662091849033e+03
6.640000000000000000e+02	3.996316362614628360e+03
6.650000000000000000e+02	4.008739834697374590e+03
6.660000000000000000e+02	4.020168620816631574e+03
6.670000000000000000e+02	4.030594003191952197e+03
6.680000000000000000e+02	4.040008014867535167e+03
6.690000000000000000e+02	4.048403449858146814e+03
6.700000000000000000e+02	4.055773872341222614e+03
6.710000000000000000e+02	4.062113624878752489e+03
6.720000000000000000e+02	4.067417835654230657e+03
6.730000000000000000e+02	4.071682424711720159e+03
6.740000000000000000e+02	4.074904109185845755e+03
6.750000000000000000e+02	4.077080407513324189e+03
6.760000000000000000e+02	4.078209642618477119e+03
6.770000000000000000e+02	4.078290944066997781e+03
6.780000000000000000e+02	4.077324249184094697e+03
6.790000000000000000e+02	4.075310303135016966e+03
6.800000000000000000e+02	4.072250657967794268e+03
6.810000000000000000e+02	4.068147670619933251e+03
6.820000000000000000e+02	4.063004499892644162e+03
6.830000000000000000e+02	4.056825102398032413e+03
6.840000000000000000e+02	4.049614227486545133e+03
6.850000000000000000e+02	4.041377411163766737e+03
6.860000000000000000e+02	4.032120969007474287e+03
6.870000000000000000e+02	4.021851988097635513e+03
6.880000000000000000e+02	4.010578317973797766e+03
6.890000000000000000e+02	3.998308560635995036e+03
6.900000000000000000e+02	3.985052059607028241e+03
6.910000000000000000e+02	3.970818888075566065e+03
6.920000000000000000e+02	3.955619836141148880e+03
6.930000000000000000e+02	3.939466397183682602e+03
6.940000000000000000e+02	3.922370753381535906e+03
6.950000000000000000e+02	3.904345760403781696e+03
6.960000000000000000e+02	3.885404931303495687e+03
6.970000000000000000e+02	3.865562419640365079e+03
6.980000000000000000e+02	3.844833001862096353e+03
6.990000000000000000e+02	3.823232058975318978e+03
7.000000000000000000e+02	3.800775557537794157e+03
7.010000000000000000e+02	3.777480030004784112e+03
7.020000000000000000e+02	3.753362554463435572e+03
7.030000000000000000e+02	3.728440733789906517e+03
7.040000000000000000e+02	3.702732674264815159e+03
7.050000000000000000e+02	3.676256963683323647e+03
7.060000000000000000e+02	3.649032648996847001e+03
7.070000000000000000e+02	3.621079213523964427e+03
7.080000000000000000e+02	3.592416553768613994e+03
7.090000000000000000e+02	3.563064955884088704e+03
7.100000000000000000e+02	3.533045071821681177e+03
7.110000000000000000e+02	3.502377895203105254e+03
7.120000000000000000e+02	3.471084736955985591e+03
7.130000000000000000e+02	3.439187200751814089e+03
7.140000000000000000e+02	3.406707158285787045e+03
7.150000000000000000e+02	3.373666724437875018e+03
7.160000000000000000e+02	3.340088232354328284e+03
7.170000000000000000e+02	3.305994208488597906e+03
7.180000000000000000e+02	3.271407347640365515e+03
7.190000000000000000e+02	3.236350488030972429e+03
7.200000000000000000e+02	3.200846586453119471e+03
7.210000000000000000e+02	3.164918693532154066e+03
7.220000000000000000e+02	3.128589929135685452e+03
7.230000000000000000e+02	3.091883457967607683e+03
7.240000000000000000e+02	3.054822465381857455e+03
7.250000000000000000e+02	3.017430133450466656e+03
7.260000000000000000e+02	2.979729617319602312e+03
7.270000000000000000e+02	2.941744021886359860e+03
7.280000000000000000e+02	2.903496378828133857e+03
7.290000000000000000e+02	2.865009624015340705e+03
7.300000000000000000e+02	2.826306575337202958e+03
7.310000000000000000e+02	2.787409910969192879e+03
7.320000000000000000e+02	2.748342148109556547e+03
7.330000000000000000e+02	2.709125622211136942e+03
7.340000000000000000e+02	2.669782466733482579e+03
7.350000000000000000e+02	2.630334593438937191e+03
7.360000000000000000e+02	2.590803673255109516e+03
7.370000000000000000e+02	2.551211117724788892e+03
7.380000000000000000e+02	2.511578061063005862e+03
7.390000000000000000e+02	2.471925342839570476e+03
7.400000000000000000e+02	2.432273491304023537e+03
7.410000000000000000e+02	2.392642707368521314e+03
7.420000000000000000e+02	2.353052849262771815e+03
7.430000000000000000e+02	2.313523417873699145e+03
7.440000000000000000e+02	2.274073542781106426e+03
7.450000000000000000e+02	2.234721968999164346e+03
7.460000000000000000e+02	2.195487044432131825e+03
7.470000000000000000e+02	2.156386708051316873e+03
7.480000000000000000e+02	2.117438478798852429e+03
7.490000000000000000e+02	2.078659445222491740e+03
7.500000000000000000e+02	2.040066255844241368e+03
7.510000000000000000e+02	2.001675110264282694e+03
7.520000000000000000e+02	1.963501751000320155e+03
7.530000000000000000e+02	1.925561456061155241e+03
7.540000000000000000e+02	1.887869032252013994e+03
7.550000000000000000e+02	1.850438809207898657e+03
7.560000000000000000e+02	1.813284634150005104e+03
7.570000000000000000e+02	1.776419867359056752e+03
7.580000000000000000e+02	1.739857378358252163e+03
7.590000000000000000e+02	1.703609542797409404e+03
7.600000000000000000e+02	1.667688240028795462e+03
7.610000000000000000e+02	1.632104851364121942e+03
7.620000000000000000e+02	1.596870259001160321e+03
7.630000000000000000e+02	1.561994845607508523e+03
7.640000000000000000e+02	1.527488494548113295e+03
7.650000000000000000e+02	1.493360590742316163e+03
7.660000000000000000e+02	1.459620022135360841e+03
7.670000000000000000e+02	1.426275181768550738e+03
7.680000000000000000e+02	1.393333970431526041e+03
7.690000000000000000e+02	1.360803799879468215e+03
7.700000000000000000e+02	1.328691596597422404e+03
7.710000000000000000e+02	1.297003806093374351e+03
7.720000000000000000e+02	1.265746397701189608e+03
7.730000000000000000e+02	1.234924869874074147e+03
7.740000000000000000e+02	1.204544255948793761e+03
7.750000000000000000e+02	1.174609130360535346e+03
7.760000000000000000e+02	1.145123615287966913e+03
7.770000000000000000e+02	1.116091387707803960e+03
7.780000000000000000e+02	1.087515686837961994e+03
7.790000000000000000e+02	1.059399321948218130e+03
7.800000000000000000e+02	1.031744680517172583e+03
7.810000000000000000e+02	1.004553736714234674e+03
7.820000000000000000e+02	9.778280601853263079e+02
7.830000000000000000e+02	9.515688251210079898e+02
7.840000000000000000e+02	9.257768195857908040e+02
7.850000000000000000e+02	9.004524550875004252e+02
7.860000000000000000e+02	8.755957763656891757e+02
7.870000000000000000e+02	8.512064713782813214e+02
7.880000000000000000e+02	8.272838814658417732e+02
7.890000000000000000e+02	8.038270116731166581e+02
7.900000000000000000e+02	7.808345412077758283e+02
7.910000000000000000e+02	7.583048340166076287e+02
7.920000000000000000e+02	7.362359494597624234e+02
7.930000000000000000e+02	7.146256530640251867e+02
7.940000000000000000e+02	6.934714273364971859e+02
7.950000000000000000e+02	6.727704826205073232e+02
7.960000000000000000e+02	6.525197679760199208e+02
7.970000000000000000e+02	6.327159820672953856e+02
7.980000000000000000e+02	6.133555840410526798e+02
7.990000000000000000e+02	5.944348043789035501e+02
8.000000000000000000e+02	5.759496557083667767e+02
8.010000000000000000e+02	5.578959435573178780e+02
8.020000000000000000e+02	5.402692770372982523e+02
8.030000000000000000e+02	5.230650794416852705e+02
8.040000000000000000e+02	5.062785987453096368e+02
8.050000000000000000e+02	4.899049179927051796e+02
8.060000000000000000e+02	4.739389655627801972e+02
8.070000000000000000e+02	4.583755252983071955e+02
8.080000000000000000e+02	4.432092464892384100e+02
8.090000000000000000e+02	4.284346536994781331e+02
8.100000000000000000e+02	4.140461564273466024e+02
8.110000000000000000e+02	4.000380585906002580e+02
8.120000000000000000e+02	3.864045678274711690e+02
8.130000000000000000e+02	3.731398046058170053e+02
8.140000000000000000e+02	3.602378111330603474e+02
8.150000000000000000e+02	3.476925600602118607e+02
8.160000000000000000e+02	3.354979629738588187e+02
8.170000000000000000e+02	3.236478786705815196e+02
8.180000000000000000e+02	3.121361212088473280e+02
8.190000000000000000e+02	3.009564677339877790e+02
8.200000000000000000e+02	2.901026660724290309e+02
8.210000000000000000e+02	2.795684420918781825e+02
8.220000000000000000e+02	2.693475068247108766e+02
8.230000000000000000e+02	2.594335633523159004e+02
8.240000000000000000e+02	2.498203134486536214e+02
8.250000000000000000e+02	2.405014639817830755e+02
8.260000000000000000e+02	2.314707330725729264e+02
8.270000000000000000e+02	2.227218560102817264e+02
8.280000000000000000e+02	2.142485909251230964e+02
8.290000000000000000e+02	2.060447242183632000e+02
8.300000000000000000e+02	1.981040757508998240e+02
8.310000000000000000e+02	1.904205037916677554e+02
8.320000000000000000e+02	1.829879097275823483e+02
8.330000000000000000e+02	1.758002425370908384e+02
8.340000000000000000e+02	1.688515030297376143e+02
8.350000000000000000e+02	1.621357478544678941e+02
8.360000000000000000e+02	1.556470932796956959e+02
8.370000000000000000e+02	1.493797187484449012e+02
8.380000000000000000e+02	1.433278702121376966e+02
8.390000000000000000e+02	1.374858632468523183e+02
8.400000000000000000e+02	1.318480859561008458e+02
8.410000000000000000e+02	1.264090016643924343e+02
8.420000000000000000e+02	1.211631514060402992e+02
8.430000000000000000e+02	1.161051562138506483e+02
8.440000000000000000e+02	1.112297192124930376e+02
8.450000000000000000e+02	1.065316275214973274e+02
8.460000000000000000e+02	1.020057539729506573e+02
8.470000000000000000e+02	9.764705864908361832e+01
8.480000000000000000e+02	9.345059024503164835e+01
8.490000000000000000e+02	8.941148726214190390e+01
8.500000000000000000e+02	8.552497903726657569e+01
8.510000000000000000e+02	8.178638661353620876e+01
8.520000000000000000e+02	7.819112345815281628e+01
8.530000000000000000e+02	7.473469603276717521e+01
8.540000000000000000e+02	7.141270422202514112e+01
8.550000000000000000e+02	6.822084162587046308e+01
8.560000000000000000e+02	6.515489572118485739e+01
8.570000000000000000e+02	6.221074789833051710e+01
8.580000000000000000e+02	5.938437337812860761e+01
8.590000000000000000e+02	5.667184101477353408e+01
8.600000000000000000e+02	5.406931299013194092e+01
8.610000000000000000e+02	5.157304440482175778e+01
8.620000000000000000e+02	4.917938277140130765e+01
8.630000000000000000e+02	4.688476741492628008e+01
8.640000000000000000e+02	4.468572878605300502e+01
8.650000000000000000e+02	4.257888769178133970e+01
8.660000000000000000e+02	4.056095444883713697e+01
8.670000000000000000e+02	3.862872796459593872e+01
8.680000000000000000e+02	3.677909475034800124e+01
8.690000000000000000e+02	3.500902787159451179e+01
8.700000000000000000e+02	3.331558583995433054e+01
8.710000000000000000e+02	3.169591145114346631e+01
8.720000000000000000e+02	3.014723057337015888e+01
8.730000000000000000e+02	2.866685089036573686e+01
8.740000000000000000e+02	2.725216060314725297e+01
8.750000000000000000e+02	2.590062709447928668e+01
8.760000000000000000e+02	2.460979555987484702e+01
8.770000000000000000e+02	2.337728760884375490e+01
8.780000000000000000e+02	2.220079983996659578e+01
8.790000000000000000e+02	2.107810239323981705e+01
8.800000000000000000e+02	2.000703748300550799e+01
8.810000000000000000e+02	1.898551791464678473e+01
8.820000000000000000e+02	1.801152558809829785e+01
8.830000000000000000e+02	1.708310999108918438e+01
8.840000000000000000e+02	1.619838668490598721e+01
8.850000000000000000e+02	1.535553578533279229e+01
8.860000000000000000e+02	1.455280044129804473e+01
8.870000000000000000e+02	1.378848531363108343e+01
8.880000000000000000e+02	1.306095505620568709e+01
8.890000000000000000e+02	1.236863280162616441e+01
8.900000000000000000e+02	1.170999865348938762e+01
8.910000000000000000e+02	1.108358818713872296e+01
8.920000000000000000e+02	1.048799096070884218e+01
8.930000000000000000e+02	9.921849038147307454e+00
8.940000000000000000e+02	9.383855525787675234e+00
8.950000000000000000e+02	8.872753123940807285e+00
8.960000000000000000e+02	8.387332694865675009e+00
8.970000000000000000e+02	7.926431848379018597e+00
8.980000000000000000e+02	7.488933546263453422e+00
8.990000000000000000e+02	7.073764726537900671e+00
9.000000000000000000e+02	6.679894948560765044e+00
9.010000000000000000e+02	6.306335059846778002e+00
9.020000000000000000e+02	5.952135885391488301e+00
9.030000000000000000e+02	5.616386940214061596e+00
9.040000000000000000e+02	5.298215165748785260e+00
9.050000000000000000e+02	4.996783690638585185e+00
9.060000000000000000e+02	4.711290616410329868e+00
9.070000000000000000e+02	4.440967828440798293e+00
9.080000000000000000e+02	4.185079832555039125e+00
9.090000000000000000e+02	3.942922617534437624e+00
9.100000000000000000e+02	3.713822543750841643e+00
9.110000000000000000e+02	3.497135258084870024e+00
9.120000000000000000e+02	3.292244635231603489e+00
9.130000000000000000e+02	3.098561745444835758e+00
9.140000000000000000e+02	2.915523848721812694e+00
9.150000000000000000e+02	2.742593415384256161e+00
9.160000000000000000e+02	2.579257172967958756e+00
9.170000000000000000e+02	2.425025179292435773e+00
9.180000000000000000e+02	2.279429921544143589e+00
9.190000000000000000e+02	2.142025441171241606e+00
9.200000000000000000e+02	2.012386484354928395e+00
9.210000000000000000e+02	1.890107677791812213e+00
9.220000000000000000e+02	1.774802729493688558e+00
9.230000000000000000e+02	1.666103654285114199e+00
9.240000000000000000e+02	1.563660023655592868e+00
9.250000000000000000e+02	1.467138239601543104e+00
9.260000000000000000e+02	1.376220832073742573e+00
9.270000000000000000e+02	1.290605779628400507e+00
9.280000000000000000e+02	1.210005852864286080e+00
9.290000000000000000e+02	1.134147980214510909e+00
9.300000000000000000e+02	1.062772635649388953e+00
9.310000000000000000e+02	9.956332478362709404e-01
9.320000000000000000e+02	9.324956302932679852e-01
9.330000000000000000e+02	8.731374320663977118e-01
9.340000000000000000e+02	8.173476084534729846e-01
9.350000000000000000e+02	7.649259112934627680e-01
9.360000000000000000e+02	7.156823983364438702e-01
9.370000000000000000e+02	6.694369612071013886e-01
9.380000000000000000e+02	6.260188714734156168e-01
9.390000000000000000e+02	5.852663443321589609e-01
9.400000000000000000e+02	5.470261194236347713e-01
9.410000000000000000e+02	5.111530582897968467e-01
9.420000000000000000e+02	4.775097579926130265e-01
9.430000000000000000e+02	4.459661804128350338e-01
9.440000000000000000e+02	4.163992967535349310e-01
9.450000000000000000e+02	3.886927467775616596e-01
9.460000000000000000e+02	3.627365123134859703e-01
9.470000000000000000e+02	3.384266045706219583e-01
9.480000000000000000e+02	3.156647648101958414e-01
9.490000000000000000e+02	2.943581779267286369e-01
9.500000000000000000e+02	2.744191985010911994e-01
9.510000000000000000e+02	2.557650888944502654e-01
9.520000000000000000e+02	2.383177689604470129e-01
9.530000000000000000e+02	2.220035769613241394e-01
9.540000000000000000e+02	2.067530412823813390e-01
9.550000000000000000e+02	1.925006625480103761e-01
9.560000000000000000e+02	1.791847057515855990e-01
9.570000000000000000e+02	1.667470020207139636e-01
9.580000000000000000e+02	1.551327596486493376e-01
9.590000000000000000e+02	1.442903840320875763e-01
9.600000000000000000e+02	1.341713061650315064e-01
9.610000000000000000e+02	1.247298193479238759e-01
9.620000000000000000e+02	1.159229237807646168e-01
9.630000000000000000e+02	1.077101787184483600e-01
9.640000000000000000e+02	1.000535618760350492e-01
9.650000000000000000e+02	9.291733578110963898e-02
9.660000000000000000e+02	8.626792077975024842e-02
9.670000000000000000e+02	8.007377441191618206e-02
9.680000000000000000e+02	7.430527688125762587e-02
9.690000000000000000e+02	6.893462235342641409e-02
9.700000000000000000e+02	6.393571582592662284e-02
9.710000000000000000e+02	5.928407532136627939e-02
9.720000000000000000e+02	5.495673916464890313e-02
9.730000000000000000e+02	5.093217811317351379e-02
9.740000000000000000e+02	4.719021211747058409e-02
9.750000000000000000e+02	4.371193149790340154e-02
9.760000000000000000e+02	4.047962233108632485e-02
9.770000000000000000e+02	3.747669584751250893e-02
9.780000000000000000e+02	3.468762164954888177e-02
9.790000000000000000e+02	3.209786456642593072e-02
9.800000000000000000e+02	2.969382497013550032e-02
9.810000000000000000e+02	2.746278238324192239e-02
9.820000000000000000e+02	2.539284221650901091e-02
9.830000000000000000e+02	2.347288548095062544e-02
9.840000000000000000e+02	2.169252132542117198e-02
9.850000000000000000e+02	2.004204225717712284e-02
9.860000000000000000e+02	1.851238190896157057e-02
9.870000000000000000e+02	1.709507522209076022e-02
9.880000000000000000e+02	1.578222092075807353e-02
9.890000000000000000e+02	1.456644615831695702e-02
9.900000000000000000e+02	1.344087322166258487e-02
9.910000000000000000e+02	1.239908818500653695e-02
9.920000000000000000e+02	1.143511140932746556e-02
9.930000000000000000e+02	1.054336978859473327e-02
9.940000000000000000e+02	9.718670648494529343e-03
9.950000000000000000e+02	8.956177207851075822e-03
9.960000000000000000e+02	8.251385517228015595e-03
9.970000000000000000e+02	7.600102793320263721e-03
9.980000000000000000e+02	6.998427071712474273e-03
9.990000000000000000e+02	6.442728104385564425e-03
1.000000000000000000e+03	5.929629432004949671e-03
