4.410000000000000000e+02	2.396754233118996158e-01
4.420000000000000000e+02	2.591480214825199746e-01
4.430000000000000000e+02	2.801143621093054037e-01
4.440000000000000000e+02	3.026815440026470738e-01
4.450000000000000000e+02	3.269637377644989962e-01
4.460000000000000000e+02	3.530826057973666110e-01
4.470000000000000000e+02	3.811677438005695584e-01
4.480000000000000000e+02	4.113571446094217987e-01
4.490000000000000000e+02	4.437976852501768765e-01
4.500000000000000000e+02	4.786456380999765114e-01
4.510000000000000000e+02	5.160672070563009362e-01
4.520000000000000000e+02	5.562390896346093294e-01
4.530000000000000000e+02	5.993490659256831554e-01
4.540000000000000000e+02	6.455966153556571552e-01
4.550000000000000000e+02	6.951935622015419369e-01
4.560000000000000000e+02	7.483647508231789924e-01
4.570000000000000000e+02	8.053487515788422257e-01
4.580000000000000000e+02	8.663985983958417680e-01
4.590000000000000000e+02	9.317825589695026833e-01
4.600000000000000000e+02	1.001784938563455185e+00
4.610000000000000000e+02	1.076706918381159950e+00
4.620000000000000000e+02	1.156867429472854036e+00
4.630000000000000000e+02	1.242604063133376791e+00
4.640000000000000000e+02	1.334274018734432188e+00
4.650000000000000000e+02	1.432255089919695523e+00
4.660000000000000000e+02	1.536946690072285238e+00
4.670000000000000000e+02	1.648770917941635217e+00
4.680000000000000000e+02	1.768173664290287883e+00
4.690000000000000000e+02	1.895625760390291958e+00
4.700000000000000000e+02	2.031624169163865012e+00
4.710000000000000000e+02	2.176693219723131012e+00
4.720000000000000000e+02	2.331385886019143427e+00
4.730000000000000000e+02	2.496285110260670681e+00
4.740000000000000000e+02	2.672005171708326632e+00
4.750000000000000000e+02	2.859193101389002400e+00
4.760000000000000000e+02	3.058530143209448049e+00
4.770000000000000000e+02	3.270733261875699682e+00
4.780000000000000000e+02	3.496556697946683556e+00
4.790000000000000000e+02	3.736793570265809272e+00
4.800000000000000000e+02	3.992277525923153103e+00
4.810000000000000000e+02	4.263884437802982319e+00
4.820000000000000000e+02	4.552534149666498386e+00
4.830000000000000000e+02	4.859192268608072851e+00
4.840000000000000000e+02	5.184872004603877649e+00
4.850000000000000000e+02	5.530636056745601437e+00
4.860000000000000000e+02	5.897598545617980470e+00
4.870000000000000000e+02	6.286926991137602450e+00
4.880000000000000000e+02	6.699844335025292530e+00
4.890000000000000000e+02	7.137631006974772596e+00
4.900000000000000000e+02	7.601627033907853104e+00
4.910000000000000000e+02	8.093234196102869760e+00
4.920000000000000000e+02	8.613918271549067640e+00
4.930000000000000000e+02	9.165211686745232456e+00
4.940000000000000000e+02	9.748718693991047957e+00
4.950000000000000000e+02	1.036613554624755551e+01
4.960000000000000000e+02	1.101935042118479302e+01
4.970000000000000000e+02	1.171091864244493941e+01
4.980000000000000000e+02	1.244609187654083726e+01
4.990000000000000000e+02	1.324047272882681625e+01
5.000000000000000000e+02	1.414531448199005759e+01
5.010000000000000000e+02	1.532012848793819870e+01
5.020000000000000000e+02	1.721123114194686110e+01
5.030000000000000000e+02	2.091965230815453936e+01
5.040000000000000000e+02	2.880909927768011514e+01
5.050000000000000000e+02	4.522507085498270385e+01
5.060000000000000000e+02	7.682413540575217326e+01
5.070000000000000000e+02	1.316167274772658402e+02
5.080000000000000000e+02	2.158976169804849974e+02
5.090000000000000000e+02	3.293163020705981126e+02
5.100000000000000000e+02	4.602818087575161030e+02
5.110000000000000000e+02	5.853183301044565496e+02
5.120000000000000000e+02	6.749679244962742359e+02
5.130000000000000000e+02	7.049436412657440769e+02
5.140000000000000000e+02	6.669270781800815939e+02
5.150000000000000000e+02	5.725045098825074774e+02
5.160000000000000000e+02	4.477184504540965690e+02
5.170000000000000000e+02	3.217086012288815482e+02
5.180000000000000000e+02	2.161541494870168947e+02
5.190000000000000000e+02	1.405312880648863541e+02
5.200000000000000000e+02	9.368557052230326576e+01
5.210000000000000000e+02	6.872247285734938771e+01
5.220000000000000000e+02	5.771677596932609333e+01
5.230000000000000000e+02	5.439461748432191968e+01
5.240000000000000000e+02	5.479999628735847494e+01
5.250000000000000000e+02	5.684388666978021121e+01
5.260000000000000000e+02	5.958097274579111513e+01
5.270000000000000000e+02	6.264103427883156172e+01
5.280000000000000000e+02	6.589920848985389057e+01
5.290000000000000000e+02	6.932107714609688287e+01
5.300000000000000000e+02	7.290138843023915172e+01
5.310000000000000000e+02	7.664323151104196086e+01
5.320000000000000000e+02	8.055188130564613402e+01
5.330000000000000000e+02	8.463320327802890120e+01
5.340000000000000000e+02	8.889328845801743739e+01
5.350000000000000000e+02	9.333837880229791040e+01
5.360000000000000000e+02	9.797485271019040454e+01
5.370000000000000000e+02	1.028092213685313538e+02
5.380000000000000000e+02	1.078481266176134312e+02
5.390000000000000000e+02	1.130983387783184213e+02
5.400000000000000000e+02	1.185667542008702782e+02
5.410000000000000000e+02	1.242603924945890270e+02
5.420000000000000000e+02	1.301863934247763837e+02
5.430000000000000000e+02	1.363520134662632302e+02
5.440000000000000000e+02	1.427646220037694604e+02
5.450000000000000000e+02	1.494316971695881193e+02
5.460000000000000000e+02	1.563608213094756820e+02
5.470000000000000000e+02	1.635596760680374757e+02
5.480000000000000000e+02	1.710360370853529730e+02
5.490000000000000000e+02	1.787977682970735884e+02
5.500000000000000000e+02	1.868528158307654508e+02
5.510000000000000000e+02	1.952092014918465281e+02
5.520000000000000000e+02	2.038750158330925046e+02
5.530000000000000000e+02	2.128584108023512442e+02
5.540000000000000000e+02	2.221675919638155960e+02
5.550000000000000000e+02	2.318108102889617896e+02
5.560000000000000000e+02	2.417963535140550846e+02
5.570000000000000000e+02	2.521325370619673265e+02
5.580000000000000000e+02	2.628276945269330440e+02
5.590000000000000000e+02	2.738901677218011059e+02
5.600000000000000000e+02	2.853282962882956895e+02
5.610000000000000000e+02	2.971504068718182339e+02
5.620000000000000000e+02	3.093648018633605261e+02
5.630000000000000000e+02	3.219797477121794600e+02
5.640000000000000000e+02	3.350034628140118116e+02
5.650000000000000000e+02	3.484441049807494437e+02
5.660000000000000000e+02	3.623097584986867901e+02
5.670000000000000000e+02	3.766084207836626661e+02
5.680000000000000000e+02	3.913479886426662802e+02
5.690000000000000000e+02	4.065362441527362307e+02
5.700000000000000000e+02	4.221808401692825896e+02
5.710000000000000000e+02	4.382892854772605347e+02
5.720000000000000000e+02	4.548689295999581077e+02
5.730000000000000000e+02	4.719269472815004747e+02
5.740000000000000000e+02	4.894703226605176951e+02
5.750000000000000000e+02	5.075058331537860568e+02
5.760000000000000000e+02	5.260400330700131235e+02
5.770000000000000000e+02	5.450792369752856530e+02
5.780000000000000000e+02	5.646295028330740706e+02
5.790000000000000000e+02	5.846966149430073756e+02
5.800000000000000000e+02	6.052860667039881264e+02
5.810000000000000000e+02	6.264030432285178449e+02
5.820000000000000000e+02	6.480524038364020498e+02
5.830000000000000000e+02	6.702386644572692376e+02
5.840000000000000000e+02	6.929659799725781113e+02
5.850000000000000000e+02	7.162381265289811836e+02
5.860000000000000000e+02	7.400584838560822618e+02
5.870000000000000000e+02	7.644300176227294514e+02
5.880000000000000000e+02	7.893552618670648826e+02
5.890000000000000000e+02	8.148363015365495130e+02
5.900000000000000000e+02	8.408747551751448555e+02
5.910000000000000000e+02	8.674717577957113690e+02
5.920000000000000000e+02	8.946279439765172583e+02
5.930000000000000000e+02	9.223434312214753845e+02
5.940000000000000000e+02	9.506178036244239138e+02
5.950000000000000000e+02	9.794500958783228270e+02
5.960000000000000000e+02	1.008838777670762283e+03
5.970000000000000000e+02	1.038781738507577984e+03
5.980000000000000000e+02	1.069276273006683368e+03
5.990000000000000000e+02	1.100319066704449824e+03
6.000000000000000000e+02	1.131906182417084665e+03
6.010000000000000000e+02	1.164033047199454131e+03
6.020000000000000000e+02	1.196694439943718180e+03
6.030000000000000000e+02	1.229884479659918043e+03
6.040000000000000000e+02	1.263596614480350581e+03
6.050000000000000000e+02	1.297823611429111224e+03
6.060000000000000000e+02	1.332557546997636791e+03
6.070000000000000000e+02	1.367789798566401259e+03
6.080000000000000000e+02	1.403511036712126497e+03
6.090000000000000000e+02	1.439711218438929563e+03
6.100000000000000000e+02	1.476379581370814094e+03
6.110000000000000000e+02	1.513504638941722988e+03
6.120000000000000000e+02	1.551074176618092906e+03
6.130000000000000000e+02	1.589075249187436157e+03
6.140000000000000000e+02	1.627494179144944155e+03
6.150000000000000000e+02	1.666316556208451857e+03
6.160000000000000000e+02	1.705527237990331969e+03
6.170000000000000000e+02	1.745110351853000111e+03
6.180000000000000000e+02	1.785049297972709383e+03
6.190000000000000000e+02	1.825326753634200713e+03
6.200000000000000000e+02	1.865924678776559404e+03
6.210000000000000000e+02	1.906824322808298348e+03
6.220000000000000000e+02	1.948006232707272602e+03
6.230000000000000000e+02	1.989450262418511329e+03
6.240000000000000000e+02	2.031135583560449277e+03
6.250000000000000000e+02	2.073040697447342609e+03
6.260000000000000000e+02	2.115143448432899731e+03
6.270000000000000000e+02	2.157421038577305808e+03
6.280000000000000000e+02	2.199850043636926785e+03
6.290000000000000000e+02	2.242406430373003332e+03
6.300000000000000000e+02	2.285065575172644458e+03
6.310000000000000000e+02	2.327802283972371242e+03
6.320000000000000000e+02	2.370590813471359979e+03
6.330000000000000000e+02	2.413404893618434016e+03
6.340000000000000000e+02	2.456217751353695803e+03
6.350000000000000000e+02	2.499002135582559276e+03
6.360000000000000000e+02	2.541730343356785852e+03
6.370000000000000000e+02	2.584374247233990900e+03
6.380000000000000000e+02	2.626905323783956192e+03
6.390000000000000000e+02	2.669294683206998343e+03
6.400000000000000000e+02	2.711513100026569646e+03
6.410000000000000000e+02	2.753531044815252699e+03
6.420000000000000000e+02	2.795318716910349849e+03
6.430000000000000000e+02	2.836846078072372165e+03
6.440000000000000000e+02	2.878082887036887314e+03
6.450000000000000000e+02	2.918998734907464950e+03
6.460000000000000000e+02	2.959563081334789331e+03
6.470000000000000000e+02	2.999745291424450897e+03
6.480000000000000000e+02	3.039514673313501135e+03
6.490000000000000000e+02	3.078840516353509429e+03
6.500000000000000000e+02	3.117692129835666947e+03
6.510000000000000000e+02	3.156038882191413450e+03
6.520000000000000000e+02	3.193850240600136658e+03
6.530000000000000000e+02	3.231095810933709799e+03
6.540000000000000000e+02	3.267745377966020442e+03
6.550000000000000000e+02	3.303768945774173517e+03
6.560000000000000000e+02	3.339136778256765865e+03
6.570000000000000000e+02	3.373819439693509594e+03
6.580000000000000000e+02	3.407787835269544757e+03
6.590000000000000000e+02	3.441013251487021535e+03
6.600000000000000000e+02	3.473467396385981374e+03
6.610000000000000000e+02	3.505122439496168681e+03
6.620000000000000000e+02	3.535951051441240907e+03
6.630000000000000000e+02	3.565926443116868541e+03
6.640000000000000000e+02	3.595022404364406157e+03
6.650000000000000000e+02	3.623213342062266292e+03
6.660000000000000000e+02	3.650474317557712766e+03
6.670000000000000000e+02	3.676781083362639038e+03
6.680000000000000000e+02	3.702110119037886761e+03
6.690000000000000000e+02	3.726438666191903849e+03
6.700000000000000000e+02	3.749744762520935183e+03
6.710000000000000000e+02	3.772007274819559370e+03
6.720000000000000000e+02	3.793205930892176184e+03
6.730000000000000000e+02	3.813321350298054313e+03
6.740000000000000000e+02	3.832335073864691822e+03
6.750000000000000000e+02	3.850229591906613678e+03
6.760000000000000000e+02	3.866988371089241355e+03
6.770000000000000000e+02	3.882595879880153461e+03
6.780000000000000000e+02	3.897037612532904404e+03
6.790000000000000000e+02	3.910300111551565806e+03
6.800000000000000000e+02	3.922370988587299962e+03
6.810000000000000000e+02	3.933238943721536089e+03
6.820000000000000000e+02	3.942893783093748880e+03
6.830000000000000000e+02	3.951326434835333202e+03
6.840000000000000000e+02	3.958528963274718535e+03
6.850000000000000000e+02	3.964494581382588876e+03
6.860000000000000000e+02	3.969217661429875989e+03
6.870000000000000000e+02	3.972693743835110581e+03
6.880000000000000000e+02	3.974919544181650508e+03
6.890000000000000000e+02	3.975892958389334581e+03
6.900000000000000000e+02	3.975613066029163292e+03
6.910000000000000000e+02	3.974080131773692301e+03
6.920000000000000000e+02	3.971295604979939526e+03
6.930000000000000000e+02	3.967262117405735353e+03
6.940000000000000000e+02	3.961983479064538642e+03
6.950000000000000000e+02	3.955464672227867140e+03
6.960000000000000000e+02	3.947711843588559987e+03
6.970000000000000000e+02	3.938732294602117236e+03
6.980000000000000000e+02	3.928534470027377210e+03
6.990000000000000000e+02	3.917127944691691937e+03
7.000000000000000000e+02	3.904523408509649016e+03
7.010000000000000000e+02	3.890732649788147228e+03
7.020000000000000000e+02	3.875768536854319336e+03
7.030000000000000000e+02	3.859644998046389446e+03
7.040000000000000000e+02	3.842377000111010148e+03
7.050000000000000000e+02	3.823980525053980273e+03
7.060000000000000000e+02	3.804472545494452334e+03
7.070000000000000000e+02	3.783870998575831891e+03
7.080000000000000000e+02	3.762194758489482410e+03
7.090000000000000000e+02	3.739463607670143574e+03
7.100000000000000000e+02	3.715698206724561715e+03
7.110000000000000000e+02	3.690920063157298955e+03
7.120000000000000000e+02	3.665151498959940454e+03
7.130000000000000000e+02	3.638415617132009174e+03
7.140000000000000000e+02	3.610736267203813895e+03
7.150000000000000000e+02	3.582138009833153774e+03
7.160000000000000000e+02	3.552646080549341150e+03
7.170000000000000000e+02	3.522286352719321712e+03
7.180000000000000000e+02	3.491085299811799359e+03
7.190000000000000000e+02	3.459069957036209871e+03
7.200000000000000000e+02	3.426267882434111016e+03
7.210000000000000000e+02	3.392707117501079665e+03
7.220000000000000000e+02	3.358416147417549837e+03
7.230000000000000000e+02	3.323423860967130167e+03
7.240000000000000000e+02	3.287759510220888387e+03
7.250000000000000000e+02	3.251452670065814800e+03
7.260000000000000000e+02	3.214533197655214281e+03
7.270000000000000000e+02	3.177031191858125567e+03
7.280000000000000000e+02	3.138976952784040805e+03
7.290000000000000000e+02	3.100400941458158286e+03
7.300000000000000000e+02	3.061333739721229904e+03
7.310000000000000000e+02	3.021806010426672401e+03
7.320000000000000000e+02	2.981848458006094916e+03
7.330000000000000000e+02	2.941491789472706841e+03
7.340000000000000000e+02	2.900766675930194197e+03
7.350000000000000000e+02	2.859703714652703638e+03
7.360000000000000000e+02	2.818333391799406400e+03
7.370000000000000000e+02	2.776686045824888879e+03
7.380000000000000000e+02	2.734791831644196918e+03
7.390000000000000000e+02	2.692680685608910608e+03
7.400000000000000000e+02	2.650382291347982118e+03
7.410000000000000000e+02	2.607926046524412868e+03
7.420000000000000000e+02	2.565341030556025999e+03
7.430000000000000000e+02	2.522655973345771599e+03
7.440000000000000000e+02	2.479899225064021721e+03
7.450000000000000000e+02	2.437098727022376352e+03
7.460000000000000000e+02	2.394281983675418360e+03
7.470000000000000000e+02	2.351476035783806765e+03
7.480000000000000000e+02	2.308707434768966323e+03
7.490000000000000000e+02	2.266002218286516381e+03
7.500000000000000000e+02	2.223385887042417835e+03
7.510000000000000000e+02	2.180883382872686070e+03
7.520000000000000000e+02	2.138519068104362759e+03
7.530000000000000000e+02	2.096316706212308873e+03
7.540000000000000000e+02	2.054299443783284005e+03
7.550000000000000000e+02	2.012489793795685728e+03
7.560000000000000000e+02	1.970909620220299757e+03
7.570000000000000000e+02	1.929580123944411753e+03
7.580000000000000000e+02	1.888521830018688206e+03
7.590000000000000000e+02	1.847754576223380582e+03
7.600000000000000000e+02	1.807297502947570138e+03
7.610000000000000000e+02	1.767169044372459211e+03
7.620000000000000000e+02	1.727386920947050839e+03
7.630000000000000000e+02	1.687968133141998578e+03
7.640000000000000000e+02	1.648928956464927523e+03
7.650000000000000000e+02	1.610284937718149422e+03
7.660000000000000000e+02	1.572050892477431262e+03
7.670000000000000000e+02	1.534240903768277803e+03
7.680000000000000000e+02	1.496868321914155104e+03
7.690000000000000000e+02	1.459945765529107575e+03
7.700000000000000000e+02	1.423485123625399865e+03
7.710000000000000000e+02	1.387497558805086783e+03
7.720000000000000000e+02	1.351993511502821775e+03
7.730000000000000000e+02	1.316982705245726493e+03
7.740000000000000000e+02	1.282474152894802728e+03
7.750000000000000000e+02	1.248476163831111990e+03
7.760000000000000000e+02	1.214996352048861809e+03
7.770000000000000000e+02	1.182041645116524933e+03
7.780000000000000000e+02	1.149618293966276269e+03
7.790000000000000000e+02	1.117731883471268020e+03
7.800000000000000000e+02	1.086387343769653171e+03
7.810000000000000000e+02	1.055588962293759096e+03
7.820000000000000000e+02	1.025340396462427634e+03
7.830000000000000000e+02	9.956446869942603826e+02
7.840000000000000000e+02	9.665042717993655970e+02
7.850000000000000000e+02	9.379210004071247795e+02
7.860000000000000000e+02	9.098961488875910391e+02
7.870000000000000000e+02	8.824304352242595542e+02
7.880000000000000000e+02	8.555240350962342291e+02
7.890000000000000000e+02	8.291765980281639941e+02
7.900000000000000000e+02	8.033872638667719457e+02
7.910000000000000000e+02	7.781546795433451962e+02
7.920000000000000000e+02	7.534770160821736908e+02
7.930000000000000000e+02	7.293519858156283817e+02
7.940000000000000000e+02	7.057768597673563136e+02
7.950000000000000000e+02	6.827484851659106653e+02
7.960000000000000000e+02	6.602633030520590864e+02
7.970000000000000000e+02	6.383173659439916037e+02
7.980000000000000000e+02	6.169063555256788050e+02
7.990000000000000000e+02	5.960256003247302488e+02
8.000000000000000000e+02	5.756700933472296811e+02
8.010000000000000000e+02	5.558345096382071233e+02
8.020000000000000000e+02	5.365132237376265039e+02
8.030000000000000000e+02	5.177003270030136264e+02
8.040000000000000000e+02	4.993896447711292126e+02
8.050000000000000000e+02	4.815747533324030769e+02
8.060000000000000000e+02	4.642489966931575509e+02
8.070000000000000000e+02	4.474055031019927924e+02
8.080000000000000000e+02	4.310372013180615909e+02
8.090000000000000000e+02	4.151368366003064239e+02
8.100000000000000000e+02	3.996969863981050253e+02
8.110000000000000000e+02	3.847100757251188270e+02
8.120000000000000000e+02	3.701683921994978164e+02
8.130000000000000000e+02	3.560641007349447023e+02
8.140000000000000000e+02	3.423892578684692012e+02
8.150000000000000000e+02	3.291358257119855466e+02
8.160000000000000000e+02	3.162956855162109946e+02
8.170000000000000000e+02	3.038606508365971308e+02
8.180000000000000000e+02	2.918224802922882759e+02
8.190000000000000000e+02	2.801728899103273420e+02
8.200000000000000000e+02	2.689035650485324709e+02
8.210000000000000000e+02	2.580061718916400082e+02
8.220000000000000000e+02	2.474723685164434244e+02
8.230000000000000000e+02	2.372938155227617187e+02
8.240000000000000000e+02	2.274621862281395863e+02
8.250000000000000000e+02	2.179691764252055179e+02
8.260000000000000000e+02	2.088065137016051551e+02
8.270000000000000000e+02	1.999659663233749711e+02
8.280000000000000000e+02	1.914393516835298215e+02
8.290000000000000000e+02	1.832185443184980898e+02
8.300000000000000000e+02	1.752954834958660228e+02
8.310000000000000000e+02	1.676621803776671413e+02
8.320000000000000000e+02	1.603107247641879951e+02
8.330000000000000000e+02	1.532332914239541992e+02
8.340000000000000000e+02	1.464221460162078756e+02
8.350000000000000000e+02	1.398696506127867281e+02
8.360000000000000000e+02	1.335682688268836387e+02
8.370000000000000000e+02	1.275105705566721213e+02
8.380000000000000000e+02	1.216892363522666045e+02
8.390000000000000000e+02	1.160970614149106552e+02
8.400000000000000000e+02	1.107269592376841558e+02
8.410000000000000000e+02	1.055719648973645519e+02
8.420000000000000000e+02	1.006252380073911041e+02
8.430000000000000000e+02	9.588006534215224974e+01
8.440000000000000000e+02	9.132986314304919517e+01
8.450000000000000000e+02	8.696817911698666137e+01
8.460000000000000000e+02	8.278869413810402023e+01
8.470000000000000000e+02	7.878522366368682128e+01
8.480000000000000000e+02	7.495171887529367893e+01
8.490000000000000000e+02	7.128226755619674293e+01
8.500000000000000000e+02	6.777109471626626203e+01
8.510000000000000000e+02	6.441256297543334597e+01
8.520000000000000000e+02	6.120117271684162574e+01
8.530000000000000000e+02	5.813156202074779344e+01
8.540000000000000000e+02	5.519850639015705696e+01
8.550000000000000000e+02	5.239691827908060873e+01
8.560000000000000000e+02	4.972184643418330552e+01
8.570000000000000000e+02	4.716847506044831562e+01
8.580000000000000000e+02	4.473212282132668349e+01
8.590000000000000000e+02	4.240824168366313529e+01
8.600000000000000000e+02	4.019241561749498715e+01
8.610000000000000000e+02	3.808035916061427884e+01
8.620000000000000000e+02	3.606791585756038643e+01
8.630000000000000000e+02	3.415105658247762932e+01
8.640000000000000000e+02	3.232587775502599925e+01
8.650000000000000000e+02	3.058859945828076121e+01
8.660000000000000000e+02	2.893556346729168638e+01
8.670000000000000000e+02	2.736323119670317539e+01
8.680000000000000000e+02	2.586818157556078646e+01
8.690000000000000000e+02	2.444710885714670212e+01
8.700000000000000000e+02	2.309682037140253996e+01
8.710000000000000000e+02	2.181423422720807537e+01
8.720000000000000000e+02	2.059637697149495850e+01
8.730000000000000000e+02	1.944038121188203405e+01
8.740000000000000000e+02	1.834348320922695308e+01
8.750000000000000000e+02	1.730302044619735469e+01
8.760000000000000000e+02	1.631642917767493373e+01
8.770000000000000000e+02	1.538124196851685888e+01
8.780000000000000000e+02	1.449508522391476184e+01
8.790000000000000000e+02	1.365567671730804733e+01
8.800000000000000000e+02	1.286082312053133592e+01
8.810000000000000000e+02	1.210841754060181330e+01
8.820000000000000000e+02	1.139643706728323380e+01
8.830000000000000000e+02	1.072294033530062940e+01
8.840000000000000000e+02	1.008606510482229623e+01
8.850000000000000000e+02	9.484025863574075288e+00
8.860000000000000000e+02	8.915111453706764166e+00
8.870000000000000000e+02	8.377682726299459759e+00
8.880000000000000000e+02	7.870170226150869475e+00
8.890000000000000000e+02	7.391071909287091124e+00
8.900000000000000000e+02	6.938950895398807717e+00
8.910000000000000000e+02	6.512433257211719173e+00
8.920000000000000000e+02	6.110205848594035594e+00
8.930000000000000000e+02	5.731014173011716117e+00
8.940000000000000000e+02	5.373660293757062334e+00
8.950000000000000000e+02	5.037000787199302998e+00
8.960000000000000000e+02	4.719944740136656769e+00
8.970000000000000000e+02	4.421451792167696127e+00
8.980000000000000000e+02	4.140530223846637270e+00
8.990000000000000000e+02	3.876235091241210018e+00
9.000000000000000000e+02	3.627666407373590918e+00
9.010000000000000000e+02	3.393967370894487967e+00
9.020000000000000000e+02	3.174322642217201285e+00
9.030000000000000000e+02	2.967956667222705569e+00
9.040000000000000000e+02	2.774132048538139550e+00
9.050000000000000000e+02	2.592147964289428064e+00
9.060000000000000000e+02	2.421338634133873846e+00
9.070000000000000000e+02	2.261071832290350248e+00
9.080000000000000000e+02	2.110747447203034532e+00
9.090000000000000000e+02	1.969796087398945961e+00
9.100000000000000000e+02	1.837677733030280702e+00
9.110000000000000000e+02	1.713880432528737341e+00
9.120000000000000000e+02	1.597919043741103051e+00
9.130000000000000000e+02	1.489334018862794373e+00
9.140000000000000000e+02	1.387690232438550053e+00
9.150000000000000000e+02	1.292575851657131736e+00
9.160000000000000000e+02	1.203601248129159584e+00
9.170000000000000000e+02	1.120397950304083290e+00
9.180000000000000000e+02	1.042617635653402708e+00
9.190000000000000000e+02	9.699311617226589188e-01
9.200000000000000000e+02	9.020276351336784515e-01
9.210000000000000000e+02	8.386135176015530046e-01
9.220000000000000000e+02	7.794117680170395968e-01
9.230000000000000000e+02	7.241610196346638384e-01
9.240000000000000000e+02	6.726147913994124927e-01
9.250000000000000000e+02	6.245407324404208538e-01
9.260000000000000000e+02	5.797198987582248275e-01
9.270000000000000000e+02	5.379460611327979702e-01
9.280000000000000000e+02	4.990250432826331961e-01
9.290000000000000000e+02	4.627740893101828790e-01
9.300000000000000000e+02	4.290212594761558806e-01
9.310000000000000000e+02	3.976048533540228469e-01
9.320000000000000000e+02	3.683728594267046130e-01
9.330000000000000000e+02	3.411824301994715314e-01
9.340000000000000000e+02	3.158993819165692440e-01
9.350000000000000000e+02	2.923977179837362605e-01
9.360000000000000000e+02	2.705591752145875550e-01
9.370000000000000000e+02	2.502727920355884428e-01
9.380000000000000000e+02	2.314344978019574339e-01
9.390000000000000000e+02	2.139467223952029040e-01
9.400000000000000000e+02	1.977180252920067438e-01
9.410000000000000000e+02	1.826627433137039402e-01
9.420000000000000000e+02	1.687006562856016856e-01
9.430000000000000000e+02	1.557566698557285856e-01
9.440000000000000000e+02	1.437605147432378105e-01
9.450000000000000000e+02	1.326464617074966379e-01
9.460000000000000000e+02	1.223530515498604115e-01
9.470000000000000000e+02	1.128228394811272156e-01
9.480000000000000000e+02	1.040021532086863737e-01
9.490000000000000000e+02	9.584086411831600760e-02
9.500000000000000000e+02	8.829217094643009023e-02
9.510000000000000000e+02	8.131239535924290884e-02
9.520000000000000000e+02	7.486078887580399632e-02
9.530000000000000000e+02	6.889935059208061874e-02
9.540000000000000000e+02	6.339265518321816895e-02
9.550000000000000000e+02	5.830769068074918154e-02
9.560000000000000000e+02	5.361370554082331430e-02
9.570000000000000000e+02	4.928206453845870166e-02
9.580000000000000000e+02	4.528611304136730131e-02
9.590000000000000000e+02	4.160104923504053670e-02
9.600000000000000000e+02	3.820380388849661801e-02
9.610000000000000000e+02	3.507292726736693789e-02
9.620000000000000000e+02	3.218848281782347304e-02
9.630000000000000000e+02	2.953194726121824085e-02
9.640000000000000000e+02	2.708611675520441672e-02
9.650000000000000000e+02	2.483501879254065500e-02
9.660000000000000000e+02	2.276382952373399299e-02
9.670000000000000000e+02	2.085879620415791863e-02
9.680000000000000000e+02	1.910716448028325701e-02
9.690000000000000000e+02	1.749711024319134875e-02
9.700000000000000000e+02	1.601767579059382510e-02
9.710000000000000000e+02	1.465871005117458901e-02
9.720000000000000000e+02	1.341081263719436090e-02
9.730000000000000000e+02	1.226528150296990818e-02
9.740000000000000000e+02	1.121406399805791737e-02
9.750000000000000000e+02	1.024971111475273845e-02
9.760000000000000000e+02	9.365334739849805884e-03
9.770000000000000000e+02	8.554567730545619558e-03
9.780000000000000000e+02	7.811526643847780706e-03
9.790000000000000000e+02	7.130776957966549964e-03
9.800000000000000000e+02	6.507300632860662896e-03
9.810000000000000000e+02	5.936465865427610795e-03
9.820000000000000000e+02	5.413998902771667912e-03
9.830000000000000000e+02	4.935957784562826529e-03
9.840000000000000000e+02	4.498707892728055768e-03
9.850000000000000000e+02	4.098899193603851299e-03
9.860000000000000000e+02	3.733445064236950994e-03
9.870000000000000000e+02	3.399502600760350747e-03
9.880000000000000000e+02	3.094454312704508509e-03
9.890000000000000000e+02	2.815891112741154573e-03
9.900000000000000000e+02	2.561596516709737249e-03
9.910000000000000000e+02	2.329531973855185432e-03
9.920000000000000000e+02	2.117823252021811421e-03
9.930000000000000000e+02	1.924747807111466943e-03
9.940000000000000000e+02	1.748723070435614577e-03
9.950000000000000000e+02	1.588295591680586238e-03
9.960000000000000000e+02	1.442130979073265621e-03
9.970000000000000000e+02	1.309004581990012937e-03
9.980000000000000000e+02	1.187792864704838346e-03
9.990000000000000000e+02	1.077465423232493212e-03
1.000000000000000000e+03	9.770776002973524318e-04
